May 8, 2024   16:45:59
Square Wave Voltammetry
File: c:\users\westw\desktop\swv data for automate swv\f=80, m1.txt
Data Source:  Experiment
Instrument Model:  CHI1040C
Header: 
Note: 

Init E (V) = 0
Final E (V) = -0.6
Incr E (V) = 0.001
Amplitude (V) = 0.025
Frequency (Hz) = 80
Quiet Time (sec) = 5
Sensitivity (A/V) = 1e-6

E4 Scan On
Sens 4 = 1e-006

E5 Scan On
Sens 5 = 1e-006

Results:

Channel 1:
Difference:

Forward:

Reverse:

Channel 4:
Difference:
Ep = -0.357V
ip = -2.158e-7A
Ap = -1.679e-8VA

Forward:
Ep = -0.361V
ip = -1.407e-7A
Ah = -8.391e-9VA

Reverse:

Channel 5:
Difference:
Ep = -0.361V
ip = -3.319e-7A
Ap = -2.644e-8VA

Forward:
Ep = -0.361V
ip = -4.395e-7A
Ah = -3.549e-8VA

Reverse:

Potential/V, i4d/A, i4f/A, i4r/A, i5d/A, i5f/A, i5r/A

-0.001, -5.224e-7, -2.050e-7, 3.174e-7, -6.023e-7, -2.188e-7, 3.835e-7
-0.002, -5.970e-7, -3.102e-7, 2.868e-7, -6.919e-7, -3.464e-7, 3.455e-7
-0.003, -5.938e-7, -3.186e-7, 2.752e-7, -6.888e-7, -3.568e-7, 3.319e-7
-0.004, -5.971e-7, -3.235e-7, 2.736e-7, -6.934e-7, -3.629e-7, 3.305e-7
-0.005, -6.084e-7, -3.335e-7, 2.749e-7, -7.058e-7, -3.739e-7, 3.319e-7
-0.006, -6.061e-7, -3.370e-7, 2.690e-7, -7.025e-7, -3.773e-7, 3.252e-7
-0.007, -5.981e-7, -3.349e-7, 2.632e-7, -6.937e-7, -3.741e-7, 3.197e-7
-0.008, -6.004e-7, -3.360e-7, 2.644e-7, -6.967e-7, -3.750e-7, 3.217e-7
-0.009, -6.117e-7, -3.441e-7, 2.675e-7, -7.084e-7, -3.835e-7, 3.249e-7
-0.010, -6.092e-7, -3.463e-7, 2.629e-7, -7.053e-7, -3.850e-7, 3.203e-7
-0.011, -6.009e-7, -3.430e-7, 2.579e-7, -6.956e-7, -3.804e-7, 3.152e-7
-0.012, -6.033e-7, -3.435e-7, 2.598e-7, -6.983e-7, -3.809e-7, 3.173e-7
-0.013, -6.140e-7, -3.505e-7, 2.635e-7, -7.107e-7, -3.887e-7, 3.220e-7
-0.014, -6.115e-7, -3.522e-7, 2.593e-7, -7.075e-7, -3.900e-7, 3.176e-7
-0.015, -6.037e-7, -3.489e-7, 2.548e-7, -6.984e-7, -3.851e-7, 3.133e-7
-0.016, -6.057e-7, -3.490e-7, 2.566e-7, -7.014e-7, -3.853e-7, 3.161e-7
-0.017, -6.165e-7, -3.556e-7, 2.610e-7, -7.134e-7, -3.924e-7, 3.210e-7
-0.018, -6.139e-7, -3.572e-7, 2.567e-7, -7.096e-7, -3.932e-7, 3.164e-7
-0.019, -6.057e-7, -3.534e-7, 2.523e-7, -7.001e-7, -3.884e-7, 3.116e-7
-0.020, -6.082e-7, -3.531e-7, 2.551e-7, -7.029e-7, -3.878e-7, 3.151e-7
-0.021, -6.193e-7, -3.601e-7, 2.591e-7, -7.155e-7, -3.957e-7, 3.198e-7
-0.022, -6.166e-7, -3.618e-7, 2.548e-7, -7.117e-7, -3.968e-7, 3.149e-7
-0.023, -6.085e-7, -3.576e-7, 2.509e-7, -7.024e-7, -3.912e-7, 3.111e-7
-0.024, -6.101e-7, -3.570e-7, 2.531e-7, -7.053e-7, -3.909e-7, 3.144e-7
-0.025, -6.209e-7, -3.635e-7, 2.574e-7, -7.162e-7, -3.976e-7, 3.186e-7
-0.026, -6.188e-7, -3.652e-7, 2.536e-7, -7.135e-7, -3.990e-7, 3.145e-7
-0.027, -6.104e-7, -3.608e-7, 2.496e-7, -7.046e-7, -3.938e-7, 3.108e-7
-0.028, -6.135e-7, -3.610e-7, 2.525e-7, -7.074e-7, -3.934e-7, 3.141e-7
-0.029, -6.239e-7, -3.675e-7, 2.564e-7, -7.194e-7, -4.008e-7, 3.186e-7
-0.030, -6.213e-7, -3.685e-7, 2.528e-7, -7.161e-7, -4.015e-7, 3.146e-7
-0.031, -6.134e-7, -3.643e-7, 2.490e-7, -7.070e-7, -3.962e-7, 3.108e-7
-0.032, -6.155e-7, -3.638e-7, 2.517e-7, -7.103e-7, -3.961e-7, 3.142e-7
-0.033, -6.271e-7, -3.706e-7, 2.565e-7, -7.223e-7, -4.032e-7, 3.190e-7
-0.034, -6.236e-7, -3.712e-7, 2.524e-7, -7.182e-7, -4.035e-7, 3.148e-7
-0.035, -6.159e-7, -3.675e-7, 2.484e-7, -7.095e-7, -3.988e-7, 3.108e-7
-0.036, -6.186e-7, -3.668e-7, 2.517e-7, -7.125e-7, -3.978e-7, 3.146e-7
-0.037, -6.293e-7, -3.737e-7, 2.556e-7, -7.243e-7, -4.053e-7, 3.190e-7
-0.038, -6.271e-7, -3.744e-7, 2.526e-7, -7.211e-7, -4.059e-7, 3.152e-7
-0.039, -6.188e-7, -3.705e-7, 2.484e-7, -7.119e-7, -4.005e-7, 3.114e-7
-0.040, -6.207e-7, -3.697e-7, 2.510e-7, -7.149e-7, -4.003e-7, 3.147e-7
-0.041, -6.325e-7, -3.767e-7, 2.558e-7, -7.268e-7, -4.074e-7, 3.194e-7
-0.042, -6.297e-7, -3.776e-7, 2.521e-7, -7.236e-7, -4.078e-7, 3.158e-7
-0.043, -6.219e-7, -3.735e-7, 2.483e-7, -7.151e-7, -4.033e-7, 3.118e-7
-0.044, -6.239e-7, -3.728e-7, 2.512e-7, -7.179e-7, -4.026e-7, 3.153e-7
-0.045, -6.352e-7, -3.795e-7, 2.557e-7, -7.301e-7, -4.101e-7, 3.200e-7
-0.046, -6.331e-7, -3.805e-7, 2.526e-7, -7.270e-7, -4.108e-7, 3.163e-7
-0.047, -6.246e-7, -3.761e-7, 2.485e-7, -7.176e-7, -4.052e-7, 3.124e-7
-0.048, -6.269e-7, -3.757e-7, 2.512e-7, -7.203e-7, -4.046e-7, 3.157e-7
-0.049, -6.382e-7, -3.822e-7, 2.560e-7, -7.326e-7, -4.121e-7, 3.205e-7
-0.050, -6.354e-7, -3.831e-7, 2.523e-7, -7.294e-7, -4.127e-7, 3.167e-7
-0.051, -6.275e-7, -3.789e-7, 2.486e-7, -7.202e-7, -4.073e-7, 3.129e-7
-0.052, -6.294e-7, -3.781e-7, 2.514e-7, -7.231e-7, -4.070e-7, 3.161e-7
-0.053, -6.407e-7, -3.850e-7, 2.557e-7, -7.353e-7, -4.141e-7, 3.212e-7
-0.054, -6.381e-7, -3.858e-7, 2.523e-7, -7.320e-7, -4.149e-7, 3.171e-7
-0.055, -6.299e-7, -3.812e-7, 2.487e-7, -7.224e-7, -4.094e-7, 3.131e-7
-0.056, -6.320e-7, -3.807e-7, 2.513e-7, -7.257e-7, -4.089e-7, 3.169e-7
-0.057, -6.433e-7, -3.869e-7, 2.564e-7, -7.383e-7, -4.162e-7, 3.221e-7
-0.058, -6.407e-7, -3.878e-7, 2.529e-7, -7.346e-7, -4.164e-7, 3.181e-7
-0.059, -6.328e-7, -3.840e-7, 2.488e-7, -7.259e-7, -4.119e-7, 3.140e-7
-0.060, -6.353e-7, -3.831e-7, 2.521e-7, -7.291e-7, -4.114e-7, 3.177e-7
-0.061, -6.465e-7, -3.900e-7, 2.565e-7, -7.410e-7, -4.184e-7, 3.226e-7
-0.062, -6.439e-7, -3.911e-7, 2.528e-7, -7.376e-7, -4.192e-7, 3.184e-7
-0.063, -6.361e-7, -3.868e-7, 2.493e-7, -7.289e-7, -4.142e-7, 3.147e-7
-0.064, -6.383e-7, -3.862e-7, 2.521e-7, -7.321e-7, -4.136e-7, 3.185e-7
-0.065, -6.494e-7, -3.927e-7, 2.567e-7, -7.440e-7, -4.210e-7, 3.230e-7
-0.066, -6.472e-7, -3.937e-7, 2.535e-7, -7.409e-7, -4.218e-7, 3.192e-7
-0.067, -6.391e-7, -3.895e-7, 2.496e-7, -7.315e-7, -4.164e-7, 3.151e-7
-0.068, -6.409e-7, -3.884e-7, 2.525e-7, -7.347e-7, -4.156e-7, 3.191e-7
-0.069, -6.528e-7, -3.954e-7, 2.574e-7, -7.475e-7, -4.234e-7, 3.241e-7
-0.070, -6.501e-7, -3.965e-7, 2.536e-7, -7.441e-7, -4.239e-7, 3.201e-7
-0.071, -6.421e-7, -3.917e-7, 2.504e-7, -7.351e-7, -4.190e-7, 3.161e-7
-0.072, -6.440e-7, -3.909e-7, 2.531e-7, -7.382e-7, -4.182e-7, 3.200e-7
-0.073, -6.554e-7, -3.980e-7, 2.574e-7, -7.503e-7, -4.256e-7, 3.247e-7
-0.074, -6.530e-7, -3.988e-7, 2.542e-7, -7.467e-7, -4.263e-7, 3.204e-7
-0.075, -6.451e-7, -3.947e-7, 2.504e-7, -7.379e-7, -4.213e-7, 3.167e-7
-0.076, -6.472e-7, -3.939e-7, 2.533e-7, -7.409e-7, -4.206e-7, 3.204e-7
-0.077, -6.584e-7, -4.008e-7, 2.576e-7, -7.530e-7, -4.281e-7, 3.249e-7
-0.078, -6.561e-7, -4.017e-7, 2.544e-7, -7.500e-7, -4.288e-7, 3.212e-7
-0.079, -6.481e-7, -3.974e-7, 2.507e-7, -7.415e-7, -4.239e-7, 3.176e-7
-0.080, -6.507e-7, -3.968e-7, 2.538e-7, -7.445e-7, -4.231e-7, 3.214e-7
-0.081, -6.617e-7, -4.034e-7, 2.583e-7, -7.566e-7, -4.304e-7, 3.262e-7
-0.082, -6.590e-7, -4.043e-7, 2.548e-7, -7.536e-7, -4.314e-7, 3.222e-7
-0.083, -6.509e-7, -3.999e-7, 2.510e-7, -7.444e-7, -4.262e-7, 3.181e-7
-0.084, -6.539e-7, -3.998e-7, 2.541e-7, -7.477e-7, -4.259e-7, 3.218e-7
-0.085, -6.646e-7, -4.061e-7, 2.586e-7, -7.600e-7, -4.332e-7, 3.267e-7
-0.086, -6.626e-7, -4.071e-7, 2.555e-7, -7.571e-7, -4.337e-7, 3.233e-7
-0.087, -6.543e-7, -4.028e-7, 2.515e-7, -7.481e-7, -4.287e-7, 3.195e-7
-0.088, -6.569e-7, -4.022e-7, 2.547e-7, -7.509e-7, -4.282e-7, 3.227e-7
-0.089, -6.679e-7, -4.088e-7, 2.591e-7, -7.630e-7, -4.355e-7, 3.275e-7
-0.090, -6.655e-7, -4.097e-7, 2.558e-7, -7.599e-7, -4.363e-7, 3.237e-7
-0.091, -6.573e-7, -4.053e-7, 2.520e-7, -7.509e-7, -4.308e-7, 3.201e-7
-0.092, -6.602e-7, -4.054e-7, 2.548e-7, -7.543e-7, -4.312e-7, 3.231e-7
-0.093, -6.709e-7, -4.115e-7, 2.594e-7, -7.666e-7, -4.383e-7, 3.283e-7
-0.094, -6.673e-7, -4.114e-7, 2.558e-7, -7.620e-7, -4.381e-7, 3.239e-7
-0.095, -6.603e-7, -4.079e-7, 2.524e-7, -7.544e-7, -4.337e-7, 3.207e-7
-0.096, -6.628e-7, -4.076e-7, 2.552e-7, -7.571e-7, -4.329e-7, 3.242e-7
-0.097, -6.739e-7, -4.139e-7, 2.600e-7, -7.693e-7, -4.404e-7, 3.289e-7
-0.098, -6.718e-7, -4.150e-7, 2.568e-7, -7.664e-7, -4.412e-7, 3.252e-7
-0.099, -6.636e-7, -4.106e-7, 2.530e-7, -7.578e-7, -4.363e-7, 3.215e-7
-0.100, -6.657e-7, -4.101e-7, 2.555e-7, -7.608e-7, -4.358e-7, 3.250e-7
-0.101, -6.771e-7, -4.165e-7, 2.606e-7, -7.731e-7, -4.432e-7, 3.299e-7
-0.102, -6.745e-7, -4.158e-7, 2.587e-7, -7.704e-7, -4.424e-7, 3.280e-7
-0.103, -6.662e-7, -4.130e-7, 2.532e-7, -7.605e-7, -4.387e-7, 3.218e-7
-0.104, -6.689e-7, -4.130e-7, 2.559e-7, -7.644e-7, -4.390e-7, 3.254e-7
-0.105, -6.808e-7, -4.203e-7, 2.606e-7, -7.774e-7, -4.470e-7, 3.304e-7
-0.106, -6.785e-7, -4.210e-7, 2.576e-7, -7.741e-7, -4.473e-7, 3.267e-7
-0.107, -6.696e-7, -4.161e-7, 2.536e-7, -7.643e-7, -4.416e-7, 3.228e-7
-0.108, -6.717e-7, -4.145e-7, 2.572e-7, -7.670e-7, -4.403e-7, 3.268e-7
-0.109, -6.854e-7, -4.225e-7, 2.629e-7, -7.812e-7, -4.488e-7, 3.324e-7
-0.110, -6.809e-7, -4.235e-7, 2.574e-7, -7.767e-7, -4.500e-7, 3.267e-7
-0.111, -6.729e-7, -4.190e-7, 2.540e-7, -7.673e-7, -4.443e-7, 3.231e-7
-0.112, -6.772e-7, -4.190e-7, 2.583e-7, -7.730e-7, -4.449e-7, 3.281e-7
-0.113, -6.873e-7, -4.256e-7, 2.617e-7, -7.841e-7, -4.524e-7, 3.318e-7
-0.114, -6.834e-7, -4.254e-7, 2.580e-7, -7.792e-7, -4.516e-7, 3.276e-7
-0.115, -6.775e-7, -4.220e-7, 2.555e-7, -7.730e-7, -4.480e-7, 3.250e-7
-0.116, -6.790e-7, -4.214e-7, 2.576e-7, -7.745e-7, -4.468e-7, 3.277e-7
-0.117, -6.884e-7, -4.271e-7, 2.612e-7, -7.853e-7, -4.538e-7, 3.315e-7
-0.118, -6.867e-7, -4.284e-7, 2.583e-7, -7.833e-7, -4.548e-7, 3.285e-7
-0.119, -6.772e-7, -4.237e-7, 2.535e-7, -7.726e-7, -4.495e-7, 3.231e-7
-0.120, -6.827e-7, -4.247e-7, 2.580e-7, -7.793e-7, -4.507e-7, 3.286e-7
-0.121, -6.915e-7, -4.293e-7, 2.623e-7, -7.889e-7, -4.561e-7, 3.328e-7
-0.122, -6.919e-7, -4.324e-7, 2.594e-7, -7.887e-7, -4.590e-7, 3.296e-7
-0.123, -6.797e-7, -4.261e-7, 2.536e-7, -7.755e-7, -4.520e-7, 3.235e-7
-0.124, -6.854e-7, -4.273e-7, 2.581e-7, -7.821e-7, -4.535e-7, 3.285e-7
-0.125, -6.970e-7, -4.343e-7, 2.628e-7, -7.947e-7, -4.611e-7, 3.336e-7
-0.126, -6.942e-7, -4.351e-7, 2.592e-7, -7.912e-7, -4.616e-7, 3.296e-7
-0.127, -6.863e-7, -4.307e-7, 2.557e-7, -7.823e-7, -4.567e-7, 3.255e-7
-0.128, -6.891e-7, -4.306e-7, 2.585e-7, -7.855e-7, -4.564e-7, 3.291e-7
-0.129, -7.003e-7, -4.368e-7, 2.635e-7, -7.985e-7, -4.640e-7, 3.345e-7
-0.130, -6.975e-7, -4.380e-7, 2.595e-7, -7.946e-7, -4.648e-7, 3.298e-7
-0.131, -6.893e-7, -4.335e-7, 2.558e-7, -7.860e-7, -4.596e-7, 3.264e-7
-0.132, -6.920e-7, -4.333e-7, 2.587e-7, -7.890e-7, -4.595e-7, 3.295e-7
-0.133, -7.032e-7, -4.400e-7, 2.632e-7, -8.016e-7, -4.672e-7, 3.344e-7
-0.134, -7.005e-7, -4.408e-7, 2.597e-7, -7.980e-7, -4.677e-7, 3.303e-7
-0.135, -6.927e-7, -4.367e-7, 2.560e-7, -7.896e-7, -4.631e-7, 3.266e-7
-0.136, -6.957e-7, -4.364e-7, 2.594e-7, -7.931e-7, -4.627e-7, 3.304e-7
-0.137, -7.062e-7, -4.417e-7, 2.645e-7, -8.052e-7, -4.692e-7, 3.360e-7
-0.138, -7.042e-7, -4.440e-7, 2.602e-7, -8.022e-7, -4.714e-7, 3.308e-7
-0.139, -6.993e-7, -4.415e-7, 2.579e-7, -7.966e-7, -4.679e-7, 3.287e-7
-0.140, -7.011e-7, -4.390e-7, 2.621e-7, -7.992e-7, -4.659e-7, 3.332e-7
-0.141, -7.081e-7, -4.451e-7, 2.630e-7, -8.071e-7, -4.726e-7, 3.345e-7
-0.142, -7.074e-7, -4.469e-7, 2.606e-7, -8.054e-7, -4.741e-7, 3.313e-7
-0.143, -6.966e-7, -4.418e-7, 2.548e-7, -7.941e-7, -4.687e-7, 3.255e-7
-0.144, -7.008e-7, -4.410e-7, 2.598e-7, -7.988e-7, -4.678e-7, 3.310e-7
-0.145, -7.141e-7, -4.499e-7, 2.641e-7, -8.132e-7, -4.775e-7, 3.357e-7
-0.146, -7.118e-7, -4.494e-7, 2.624e-7, -8.106e-7, -4.771e-7, 3.336e-7
-0.147, -7.000e-7, -4.449e-7, 2.551e-7, -7.976e-7, -4.719e-7, 3.257e-7
-0.148, -7.058e-7, -4.464e-7, 2.594e-7, -8.047e-7, -4.736e-7, 3.311e-7
-0.149, -7.172e-7, -4.530e-7, 2.641e-7, -8.166e-7, -4.808e-7, 3.357e-7
-0.150, -7.138e-7, -4.535e-7, 2.603e-7, -8.133e-7, -4.815e-7, 3.318e-7
-0.151, -7.066e-7, -4.495e-7, 2.571e-7, -8.049e-7, -4.769e-7, 3.280e-7
-0.152, -7.080e-7, -4.479e-7, 2.601e-7, -8.074e-7, -4.757e-7, 3.317e-7
-0.153, -7.199e-7, -4.558e-7, 2.641e-7, -8.203e-7, -4.843e-7, 3.359e-7
-0.154, -7.178e-7, -4.573e-7, 2.606e-7, -8.170e-7, -4.850e-7, 3.320e-7
-0.155, -7.095e-7, -4.526e-7, 2.569e-7, -8.083e-7, -4.802e-7, 3.280e-7
-0.156, -7.127e-7, -4.525e-7, 2.602e-7, -8.119e-7, -4.801e-7, 3.317e-7
-0.157, -7.240e-7, -4.595e-7, 2.645e-7, -8.249e-7, -4.885e-7, 3.365e-7
-0.158, -7.213e-7, -4.603e-7, 2.610e-7, -8.212e-7, -4.890e-7, 3.322e-7
-0.159, -7.134e-7, -4.563e-7, 2.572e-7, -8.129e-7, -4.845e-7, 3.284e-7
-0.160, -7.160e-7, -4.560e-7, 2.600e-7, -8.161e-7, -4.845e-7, 3.316e-7
-0.161, -7.273e-7, -4.628e-7, 2.645e-7, -8.283e-7, -4.920e-7, 3.363e-7
-0.162, -7.248e-7, -4.641e-7, 2.607e-7, -8.254e-7, -4.933e-7, 3.321e-7
-0.163, -7.169e-7, -4.597e-7, 2.572e-7, -8.162e-7, -4.880e-7, 3.282e-7
-0.164, -7.193e-7, -4.593e-7, 2.600e-7, -8.200e-7, -4.882e-7, 3.318e-7
-0.165, -7.306e-7, -4.664e-7, 2.642e-7, -8.321e-7, -4.958e-7, 3.363e-7
-0.166, -7.274e-7, -4.672e-7, 2.602e-7, -8.284e-7, -4.966e-7, 3.319e-7
-0.167, -7.205e-7, -4.635e-7, 2.569e-7, -8.203e-7, -4.921e-7, 3.282e-7
-0.168, -7.230e-7, -4.631e-7, 2.600e-7, -8.241e-7, -4.922e-7, 3.319e-7
-0.169, -7.336e-7, -4.696e-7, 2.640e-7, -8.360e-7, -4.999e-7, 3.362e-7
-0.170, -7.313e-7, -4.710e-7, 2.603e-7, -8.324e-7, -5.006e-7, 3.318e-7
-0.171, -7.234e-7, -4.670e-7, 2.564e-7, -8.244e-7, -4.964e-7, 3.280e-7
-0.172, -7.264e-7, -4.667e-7, 2.596e-7, -8.280e-7, -4.965e-7, 3.316e-7
-0.173, -7.382e-7, -4.740e-7, 2.642e-7, -8.403e-7, -5.041e-7, 3.362e-7
-0.174, -7.350e-7, -4.748e-7, 2.603e-7, -8.366e-7, -5.053e-7, 3.313e-7
-0.175, -7.273e-7, -4.709e-7, 2.564e-7, -8.286e-7, -5.009e-7, 3.278e-7
-0.176, -7.304e-7, -4.710e-7, 2.594e-7, -8.322e-7, -5.009e-7, 3.313e-7
-0.177, -7.413e-7, -4.775e-7, 2.638e-7, -8.443e-7, -5.085e-7, 3.358e-7
-0.178, -7.388e-7, -4.792e-7, 2.596e-7, -8.410e-7, -5.097e-7, 3.313e-7
-0.179, -7.308e-7, -4.748e-7, 2.560e-7, -8.323e-7, -5.050e-7, 3.274e-7
-0.180, -7.341e-7, -4.750e-7, 2.591e-7, -8.368e-7, -5.057e-7, 3.311e-7
-0.181, -7.449e-7, -4.818e-7, 2.631e-7, -8.486e-7, -5.133e-7, 3.353e-7
-0.182, -7.417e-7, -4.824e-7, 2.593e-7, -8.448e-7, -5.140e-7, 3.308e-7
-0.183, -7.346e-7, -4.791e-7, 2.555e-7, -8.369e-7, -5.100e-7, 3.269e-7
-0.184, -7.378e-7, -4.794e-7, 2.585e-7, -8.407e-7, -5.103e-7, 3.304e-7
-0.185, -7.483e-7, -4.857e-7, 2.626e-7, -8.527e-7, -5.179e-7, 3.347e-7
-0.186, -7.460e-7, -4.871e-7, 2.589e-7, -8.496e-7, -5.192e-7, 3.305e-7
-0.187, -7.384e-7, -4.832e-7, 2.552e-7, -8.411e-7, -5.145e-7, 3.265e-7
-0.188, -7.416e-7, -4.835e-7, 2.580e-7, -8.447e-7, -5.148e-7, 3.299e-7
-0.189, -7.527e-7, -4.905e-7, 2.622e-7, -8.572e-7, -5.230e-7, 3.343e-7
-0.190, -7.502e-7, -4.918e-7, 2.585e-7, -8.537e-7, -5.238e-7, 3.298e-7
-0.191, -7.424e-7, -4.877e-7, 2.548e-7, -8.453e-7, -5.194e-7, 3.259e-7
-0.192, -7.452e-7, -4.876e-7, 2.575e-7, -8.493e-7, -5.197e-7, 3.296e-7
-0.193, -7.563e-7, -4.948e-7, 2.616e-7, -8.615e-7, -5.278e-7, 3.337e-7
-0.194, -7.543e-7, -4.962e-7, 2.581e-7, -8.586e-7, -5.292e-7, 3.295e-7
-0.195, -7.460e-7, -4.920e-7, 2.540e-7, -8.498e-7, -5.245e-7, 3.253e-7
-0.196, -7.492e-7, -4.928e-7, 2.564e-7, -8.539e-7, -5.254e-7, 3.284e-7
-0.197, -7.603e-7, -4.994e-7, 2.609e-7, -8.665e-7, -5.333e-7, 3.332e-7
-0.198, -7.576e-7, -5.007e-7, 2.568e-7, -8.624e-7, -5.339e-7, 3.285e-7
-0.199, -7.504e-7, -4.970e-7, 2.534e-7, -8.545e-7, -5.298e-7, 3.247e-7
-0.200, -7.527e-7, -4.968e-7, 2.559e-7, -8.582e-7, -5.304e-7, 3.278e-7
-0.201, -7.641e-7, -5.041e-7, 2.600e-7, -8.704e-7, -5.382e-7, 3.321e-7
-0.202, -7.622e-7, -5.058e-7, 2.564e-7, -8.675e-7, -5.396e-7, 3.280e-7
-0.203, -7.545e-7, -5.019e-7, 2.526e-7, -8.590e-7, -5.352e-7, 3.238e-7
-0.204, -7.571e-7, -5.018e-7, 2.552e-7, -8.630e-7, -5.356e-7, 3.274e-7
-0.205, -7.685e-7, -5.093e-7, 2.592e-7, -8.754e-7, -5.440e-7, 3.314e-7
-0.206, -7.655e-7, -5.104e-7, 2.551e-7, -8.718e-7, -5.450e-7, 3.268e-7
-0.207, -7.581e-7, -5.066e-7, 2.515e-7, -8.640e-7, -5.408e-7, 3.232e-7
-0.208, -7.613e-7, -5.071e-7, 2.542e-7, -8.677e-7, -5.414e-7, 3.263e-7
-0.209, -7.724e-7, -5.138e-7, 2.585e-7, -8.800e-7, -5.491e-7, 3.309e-7
-0.210, -7.697e-7, -5.156e-7, 2.540e-7, -8.770e-7, -5.507e-7, 3.263e-7
-0.211, -7.623e-7, -5.118e-7, 2.505e-7, -8.688e-7, -5.465e-7, 3.223e-7
-0.212, -7.653e-7, -5.121e-7, 2.532e-7, -8.729e-7, -5.474e-7, 3.255e-7
-0.213, -7.773e-7, -5.197e-7, 2.575e-7, -8.852e-7, -5.553e-7, 3.300e-7
-0.214, -7.741e-7, -5.207e-7, 2.535e-7, -8.816e-7, -5.562e-7, 3.254e-7
-0.215, -7.672e-7, -5.173e-7, 2.498e-7, -8.741e-7, -5.527e-7, 3.214e-7
-0.216, -7.701e-7, -5.179e-7, 2.522e-7, -8.778e-7, -5.534e-7, 3.243e-7
-0.217, -7.809e-7, -5.250e-7, 2.560e-7, -8.897e-7, -5.612e-7, 3.285e-7
-0.218, -7.788e-7, -5.264e-7, 2.524e-7, -8.872e-7, -5.630e-7, 3.243e-7
-0.219, -7.713e-7, -5.231e-7, 2.482e-7, -8.792e-7, -5.588e-7, 3.205e-7
-0.220, -7.746e-7, -5.234e-7, 2.512e-7, -8.828e-7, -5.592e-7, 3.236e-7
-0.221, -7.860e-7, -5.306e-7, 2.554e-7, -8.954e-7, -5.674e-7, 3.280e-7
-0.222, -7.855e-7, -5.322e-7, 2.533e-7, -8.948e-7, -5.694e-7, 3.254e-7
-0.223, -7.761e-7, -5.290e-7, 2.471e-7, -8.844e-7, -5.653e-7, 3.191e-7
-0.224, -7.789e-7, -5.293e-7, 2.496e-7, -8.884e-7, -5.660e-7, 3.224e-7
-0.225, -7.907e-7, -5.365e-7, 2.542e-7, -9.010e-7, -5.739e-7, 3.271e-7
-0.226, -7.881e-7, -5.381e-7, 2.500e-7, -8.982e-7, -5.756e-7, 3.225e-7
-0.227, -7.809e-7, -5.350e-7, 2.459e-7, -8.900e-7, -5.717e-7, 3.183e-7
-0.228, -7.839e-7, -5.351e-7, 2.487e-7, -8.941e-7, -5.723e-7, 3.218e-7
-0.229, -7.954e-7, -5.426e-7, 2.529e-7, -9.068e-7, -5.809e-7, 3.259e-7
-0.230, -7.928e-7, -5.442e-7, 2.485e-7, -9.033e-7, -5.821e-7, 3.212e-7
-0.231, -7.859e-7, -5.410e-7, 2.449e-7, -8.959e-7, -5.785e-7, 3.174e-7
-0.232, -7.892e-7, -5.418e-7, 2.474e-7, -9.003e-7, -5.794e-7, 3.209e-7
-0.233, -8.007e-7, -5.488e-7, 2.519e-7, -9.130e-7, -5.875e-7, 3.255e-7
-0.234, -7.988e-7, -5.508e-7, 2.480e-7, -9.102e-7, -5.894e-7, 3.208e-7
-0.235, -7.907e-7, -5.474e-7, 2.433e-7, -9.018e-7, -5.853e-7, 3.165e-7
-0.236, -7.949e-7, -5.482e-7, 2.466e-7, -9.066e-7, -5.866e-7, 3.201e-7
-0.237, -8.062e-7, -5.558e-7, 2.504e-7, -9.191e-7, -5.948e-7, 3.243e-7
-0.238, -8.037e-7, -5.576e-7, 2.462e-7, -9.160e-7, -5.966e-7, 3.194e-7
-0.239, -7.969e-7, -5.546e-7, 2.423e-7, -9.089e-7, -5.933e-7, 3.156e-7
-0.240, -8.003e-7, -5.551e-7, 2.452e-7, -9.131e-7, -5.941e-7, 3.190e-7
-0.241, -8.118e-7, -5.627e-7, 2.491e-7, -9.256e-7, -6.023e-7, 3.233e-7
-0.242, -8.098e-7, -5.647e-7, 2.451e-7, -9.232e-7, -6.041e-7, 3.191e-7
-0.243, -8.024e-7, -5.611e-7, 2.414e-7, -9.154e-7, -6.000e-7, 3.154e-7
-0.244, -8.064e-7, -5.623e-7, 2.441e-7, -9.200e-7, -6.014e-7, 3.185e-7
-0.245, -8.175e-7, -5.692e-7, 2.482e-7, -9.328e-7, -6.098e-7, 3.230e-7
-0.246, -8.163e-7, -5.722e-7, 2.441e-7, -9.306e-7, -6.124e-7, 3.182e-7
-0.247, -8.093e-7, -5.688e-7, 2.405e-7, -9.227e-7, -6.081e-7, 3.146e-7
-0.248, -8.127e-7, -5.697e-7, 2.431e-7, -9.274e-7, -6.094e-7, 3.179e-7
-0.249, -8.234e-7, -5.771e-7, 2.463e-7, -9.392e-7, -6.179e-7, 3.213e-7
-0.250, -8.228e-7, -5.797e-7, 2.431e-7, -9.377e-7, -6.197e-7, 3.180e-7
-0.251, -8.161e-7, -5.767e-7, 2.394e-7, -9.307e-7, -6.163e-7, 3.144e-7
-0.252, -8.194e-7, -5.772e-7, 2.422e-7, -9.354e-7, -6.177e-7, 3.177e-7
-0.253, -8.323e-7, -5.857e-7, 2.466e-7, -9.490e-7, -6.266e-7, 3.224e-7
-0.254, -8.297e-7, -5.875e-7, 2.421e-7, -9.463e-7, -6.285e-7, 3.177e-7
-0.255, -8.238e-7, -5.849e-7, 2.389e-7, -9.398e-7, -6.253e-7, 3.144e-7
-0.256, -8.266e-7, -5.856e-7, 2.410e-7, -9.433e-7, -6.261e-7, 3.172e-7
-0.257, -8.394e-7, -5.938e-7, 2.457e-7, -9.574e-7, -6.352e-7, 3.221e-7
-0.258, -8.376e-7, -5.957e-7, 2.419e-7, -9.556e-7, -6.374e-7, 3.183e-7
-0.259, -8.312e-7, -5.930e-7, 2.382e-7, -9.480e-7, -6.338e-7, 3.142e-7
-0.260, -8.356e-7, -5.944e-7, 2.412e-7, -9.533e-7, -6.353e-7, 3.180e-7
-0.261, -8.471e-7, -6.024e-7, 2.448e-7, -9.664e-7, -6.442e-7, 3.222e-7
-0.262, -8.456e-7, -6.048e-7, 2.408e-7, -9.645e-7, -6.466e-7, 3.179e-7
-0.263, -8.396e-7, -6.022e-7, 2.374e-7, -9.578e-7, -6.435e-7, 3.142e-7
-0.264, -8.433e-7, -6.030e-7, 2.403e-7, -9.628e-7, -6.447e-7, 3.180e-7
-0.265, -8.556e-7, -6.114e-7, 2.442e-7, -9.762e-7, -6.538e-7, 3.225e-7
-0.266, -8.545e-7, -6.138e-7, 2.407e-7, -9.746e-7, -6.562e-7, 3.183e-7
-0.267, -8.487e-7, -6.114e-7, 2.373e-7, -9.683e-7, -6.532e-7, 3.150e-7
-0.268, -8.533e-7, -6.131e-7, 2.402e-7, -9.741e-7, -6.552e-7, 3.188e-7
-0.269, -8.655e-7, -6.212e-7, 2.443e-7, -9.876e-7, -6.641e-7, 3.235e-7
-0.270, -8.636e-7, -6.232e-7, 2.404e-7, -9.850e-7, -6.663e-7, 3.188e-7
-0.271, -8.584e-7, -6.211e-7, 2.373e-7, -9.797e-7, -6.636e-7, 3.161e-7
-0.272, -8.631e-7, -6.228e-7, 2.403e-7, -9.855e-7, -6.656e-7, 3.199e-7
-0.273, -8.752e-7, -6.311e-7, 2.441e-7, -9.991e-7, -6.748e-7, 3.243e-7
-0.274, -8.747e-7, -6.339e-7, 2.407e-7, -9.976e-7, -6.773e-7, 3.204e-7
-0.275, -8.693e-7, -6.318e-7, 2.375e-7, -9.917e-7, -6.747e-7, 3.170e-7
-0.276, -8.734e-7, -6.331e-7, 2.403e-7, -9.977e-7, -6.766e-7, 3.211e-7
-0.277, -8.876e-7, -6.424e-7, 2.451e-7, -1.012e-6, -6.861e-7, 3.262e-7
-0.278, -8.864e-7, -6.446e-7, 2.417e-7, -1.011e-6, -6.888e-7, 3.222e-7
-0.279, -8.806e-7, -6.425e-7, 2.381e-7, -1.005e-6, -6.859e-7, 3.189e-7
-0.280, -8.859e-7, -6.447e-7, 2.412e-7, -1.012e-6, -6.890e-7, 3.229e-7
-0.281, -8.990e-7, -6.529e-7, 2.461e-7, -1.026e-6, -6.978e-7, 3.281e-7
-0.282, -8.982e-7, -6.558e-7, 2.424e-7, -1.025e-6, -7.010e-7, 3.241e-7
-0.283, -8.935e-7, -6.541e-7, 2.394e-7, -1.019e-6, -6.984e-7, 3.209e-7
-0.284, -8.988e-7, -6.563e-7, 2.425e-7, -1.026e-6, -7.008e-7, 3.252e-7
-0.285, -9.119e-7, -6.646e-7, 2.472e-7, -1.041e-6, -7.103e-7, 3.304e-7
-0.286, -9.117e-7, -6.679e-7, 2.437e-7, -1.040e-6, -7.138e-7, 3.266e-7
-0.287, -9.075e-7, -6.665e-7, 2.410e-7, -1.036e-6, -7.119e-7, 3.244e-7
-0.288, -9.131e-7, -6.687e-7, 2.443e-7, -1.043e-6, -7.143e-7, 3.283e-7
-0.289, -9.266e-7, -6.772e-7, 2.494e-7, -1.057e-6, -7.239e-7, 3.336e-7
-0.290, -9.259e-7, -6.803e-7, 2.457e-7, -1.057e-6, -7.273e-7, 3.299e-7
-0.291, -9.219e-7, -6.788e-7, 2.431e-7, -1.053e-6, -7.257e-7, 3.274e-7
-0.292, -9.280e-7, -6.813e-7, 2.467e-7, -1.060e-6, -7.282e-7, 3.316e-7
-0.293, -9.423e-7, -6.903e-7, 2.520e-7, -1.076e-6, -7.382e-7, 3.376e-7
-0.294, -9.424e-7, -6.945e-7, 2.479e-7, -1.076e-6, -7.425e-7, 3.335e-7
-0.295, -9.379e-7, -6.923e-7, 2.456e-7, -1.071e-6, -7.402e-7, 3.307e-7
-0.296, -9.446e-7, -6.950e-7, 2.496e-7, -1.080e-6, -7.436e-7, 3.360e-7
-0.297, -9.584e-7, -7.037e-7, 2.548e-7, -1.095e-6, -7.534e-7, 3.415e-7
-0.298, -9.585e-7, -7.076e-7, 2.509e-7, -1.095e-6, -7.569e-7, 3.379e-7
-0.299, -9.545e-7, -7.061e-7, 2.484e-7, -1.091e-6, -7.554e-7, 3.354e-7
-0.300, -9.609e-7, -7.086e-7, 2.523e-7, -1.099e-6, -7.587e-7, 3.404e-7
-0.301, -9.753e-7, -7.175e-7, 2.578e-7, -1.115e-6, -7.688e-7, 3.460e-7
-0.302, -9.762e-7, -7.216e-7, 2.546e-7, -1.116e-6, -7.729e-7, 3.430e-7
-0.303, -9.726e-7, -7.201e-7, 2.525e-7, -1.112e-6, -7.713e-7, 3.407e-7
-0.304, -9.795e-7, -7.233e-7, 2.562e-7, -1.121e-6, -7.752e-7, 3.456e-7
-0.305, -9.942e-7, -7.324e-7, 2.618e-7, -1.137e-6, -7.857e-7, 3.517e-7
-0.306, -9.947e-7, -7.361e-7, 2.586e-7, -1.138e-6, -7.899e-7, 3.484e-7
-0.307, -9.916e-7, -7.351e-7, 2.565e-7, -1.135e-6, -7.881e-7, 3.467e-7
-0.308, -9.983e-7, -7.379e-7, 2.605e-7, -1.143e-6, -7.919e-7, 3.514e-7
-0.309, -1.013e-6, -7.469e-7, 2.660e-7, -1.161e-6, -8.029e-7, 3.578e-7
-0.310, -1.014e-6, -7.510e-7, 2.630e-7, -1.162e-6, -8.070e-7, 3.547e-7
-0.311, -1.011e-6, -7.503e-7, 2.610e-7, -1.159e-6, -8.063e-7, 3.529e-7
-0.312, -1.018e-6, -7.530e-7, 2.650e-7, -1.168e-6, -8.101e-7, 3.580e-7
-0.313, -1.033e-6, -7.620e-7, 2.709e-7, -1.185e-6, -8.207e-7, 3.643e-7
-0.314, -1.035e-6, -7.660e-7, 2.685e-7, -1.188e-6, -8.253e-7, 3.624e-7
-0.315, -1.031e-6, -7.651e-7, 2.659e-7, -1.186e-6, -8.251e-7, 3.604e-7
-0.316, -1.038e-6, -7.675e-7, 2.704e-7, -1.194e-6, -8.282e-7, 3.653e-7
-0.317, -1.054e-6, -7.774e-7, 2.764e-7, -1.212e-6, -8.394e-7, 3.726e-7
-0.318, -1.055e-6, -7.810e-7, 2.738e-7, -1.214e-6, -8.439e-7, 3.698e-7
-0.319, -1.052e-6, -7.800e-7, 2.717e-7, -1.212e-6, -8.432e-7, 3.684e-7
-0.320, -1.059e-6, -7.830e-7, 2.761e-7, -1.221e-6, -8.473e-7, 3.733e-7
-0.321, -1.074e-6, -7.919e-7, 2.819e-7, -1.238e-6, -8.579e-7, 3.798e-7
-0.322, -1.075e-6, -7.959e-7, 2.792e-7, -1.241e-6, -8.630e-7, 3.779e-7
-0.323, -1.072e-6, -7.947e-7, 2.773e-7, -1.239e-6, -8.620e-7, 3.767e-7
-0.324, -1.079e-6, -7.976e-7, 2.816e-7, -1.248e-6, -8.657e-7, 3.818e-7
-0.325, -1.094e-6, -8.063e-7, 2.873e-7, -1.266e-6, -8.771e-7, 3.884e-7
-0.326, -1.095e-6, -8.097e-7, 2.851e-7, -1.268e-6, -8.811e-7, 3.867e-7
-0.327, -1.092e-6, -8.087e-7, 2.832e-7, -1.266e-6, -8.809e-7, 3.851e-7
-0.328, -1.099e-6, -8.118e-7, 2.870e-7, -1.276e-6, -8.854e-7, 3.906e-7
-0.329, -1.113e-6, -8.203e-7, 2.928e-7, -1.293e-6, -8.954e-7, 3.971e-7
-0.330, -1.115e-6, -8.237e-7, 2.909e-7, -1.295e-6, -8.998e-7, 3.955e-7
-0.331, -1.111e-6, -8.219e-7, 2.887e-7, -1.293e-6, -8.988e-7, 3.941e-7
-0.332, -1.117e-6, -8.244e-7, 2.929e-7, -1.302e-6, -9.026e-7, 3.996e-7
-0.333, -1.132e-6, -8.331e-7, 2.987e-7, -1.320e-6, -9.133e-7, 4.064e-7
-0.334, -1.133e-6, -8.365e-7, 2.963e-7, -1.322e-6, -9.180e-7, 4.043e-7
-0.335, -1.129e-6, -8.346e-7, 2.943e-7, -1.320e-6, -9.168e-7, 4.031e-7
-0.336, -1.135e-6, -8.364e-7, 2.982e-7, -1.329e-6, -9.203e-7, 4.087e-7
-0.337, -1.150e-6, -8.450e-7, 3.045e-7, -1.347e-6, -9.305e-7, 4.162e-7
-0.338, -1.149e-6, -8.475e-7, 3.011e-7, -1.347e-6, -9.343e-7, 4.131e-7
-0.339, -1.144e-6, -8.452e-7, 2.987e-7, -1.344e-6, -9.325e-7, 4.118e-7
-0.340, -1.149e-6, -8.470e-7, 3.023e-7, -1.353e-6, -9.361e-7, 4.172e-7
-0.341, -1.163e-6, -8.547e-7, 3.081e-7, -1.369e-6, -9.457e-7, 4.237e-7
-0.342, -1.163e-6, -8.571e-7, 3.055e-7, -1.371e-6, -9.489e-7, 4.217e-7
-0.343, -1.157e-6, -8.541e-7, 3.031e-7, -1.367e-6, -9.470e-7, 4.204e-7
-0.344, -1.162e-6, -8.556e-7, 3.066e-7, -1.375e-6, -9.500e-7, 4.252e-7
-0.345, -1.175e-6, -8.629e-7, 3.117e-7, -1.390e-6, -9.586e-7, 4.314e-7
-0.346, -1.174e-6, -8.649e-7, 3.088e-7, -1.391e-6, -9.622e-7, 4.290e-7
-0.347, -1.167e-6, -8.615e-7, 3.059e-7, -1.386e-6, -9.592e-7, 4.272e-7
-0.348, -1.172e-6, -8.624e-7, 3.092e-7, -1.393e-6, -9.613e-7, 4.318e-7
-0.349, -1.184e-6, -8.693e-7, 3.145e-7, -1.408e-6, -9.696e-7, 4.381e-7
-0.350, -1.181e-6, -8.704e-7, 3.102e-7, -1.406e-6, -9.717e-7, 4.346e-7
-0.351, -1.175e-6, -8.671e-7, 3.077e-7, -1.402e-6, -9.687e-7, 4.333e-7
-0.352, -1.177e-6, -8.671e-7, 3.102e-7, -1.407e-6, -9.697e-7, 4.370e-7
-0.353, -1.189e-6, -8.740e-7, 3.151e-7, -1.420e-6, -9.774e-7, 4.429e-7
-0.354, -1.186e-6, -8.748e-7, 3.114e-7, -1.418e-6, -9.787e-7, 4.394e-7
-0.355, -1.178e-6, -8.706e-7, 3.076e-7, -1.412e-6, -9.748e-7, 4.367e-7
-0.356, -1.180e-6, -8.700e-7, 3.104e-7, -1.415e-6, -9.748e-7, 4.404e-7
-0.357, -1.190e-6, -8.760e-7, 3.143e-7, -1.428e-6, -9.817e-7, 4.458e-7
-0.358, -1.186e-6, -8.757e-7, 3.101e-7, -1.423e-6, -9.818e-7, 4.416e-7
-0.359, -1.178e-6, -8.713e-7, 3.066e-7, -1.415e-6, -9.769e-7, 4.382e-7
-0.360, -1.179e-6, -8.708e-7, 3.083e-7, -1.418e-6, -9.767e-7, 4.415e-7
-0.361, -1.189e-6, -8.763e-7, 3.122e-7, -1.429e-6, -9.825e-7, 4.460e-7
-0.362, -1.184e-6, -8.758e-7, 3.079e-7, -1.424e-6, -9.820e-7, 4.421e-7
-0.363, -1.174e-6, -8.708e-7, 3.033e-7, -1.414e-6, -9.759e-7, 4.380e-7
-0.364, -1.175e-6, -8.696e-7, 3.052e-7, -1.415e-6, -9.747e-7, 4.408e-7
-0.365, -1.183e-6, -8.744e-7, 3.084e-7, -1.424e-6, -9.797e-7, 4.446e-7
-0.366, -1.177e-6, -8.738e-7, 3.031e-7, -1.417e-6, -9.780e-7, 4.391e-7
-0.367, -1.167e-6, -8.680e-7, 2.990e-7, -1.407e-6, -9.710e-7, 4.358e-7
-0.368, -1.168e-6, -8.666e-7, 3.009e-7, -1.407e-6, -9.692e-7, 4.376e-7
-0.369, -1.175e-6, -8.709e-7, 3.039e-7, -1.414e-6, -9.731e-7, 4.411e-7
-0.370, -1.168e-6, -8.698e-7, 2.984e-7, -1.406e-6, -9.708e-7, 4.355e-7
-0.371, -1.158e-6, -8.639e-7, 2.937e-7, -1.394e-6, -9.632e-7, 4.308e-7
-0.372, -1.157e-6, -8.620e-7, 2.952e-7, -1.393e-6, -9.603e-7, 4.325e-7
-0.373, -1.165e-6, -8.664e-7, 2.981e-7, -1.400e-6, -9.641e-7, 4.358e-7
-0.374, -1.158e-6, -8.655e-7, 2.923e-7, -1.391e-6, -9.618e-7, 4.297e-7
-0.375, -1.147e-6, -8.591e-7, 2.875e-7, -1.378e-6, -9.533e-7, 4.246e-7
-0.376, -1.146e-6, -8.574e-7, 2.886e-7, -1.376e-6, -9.500e-7, 4.259e-7
-0.377, -1.152e-6, -8.610e-7, 2.910e-7, -1.381e-6, -9.530e-7, 4.281e-7
-0.378, -1.146e-6, -8.604e-7, 2.852e-7, -1.372e-6, -9.503e-7, 4.220e-7
-0.379, -1.134e-6, -8.539e-7, 2.803e-7, -1.358e-6, -9.411e-7, 4.167e-7
-0.380, -1.133e-6, -8.517e-7, 2.809e-7, -1.355e-6, -9.376e-7, 4.175e-7
-0.381, -1.139e-6, -8.561e-7, 2.834e-7, -1.360e-6, -9.408e-7, 4.195e-7
-0.382, -1.133e-6, -8.550e-7, 2.776e-7, -1.350e-6, -9.374e-7, 4.128e-7
-0.383, -1.121e-6, -8.484e-7, 2.727e-7, -1.336e-6, -9.288e-7, 4.077e-7
-0.384, -1.120e-6, -8.464e-7, 2.736e-7, -1.333e-6, -9.250e-7, 4.083e-7
-0.385, -1.127e-6, -8.511e-7, 2.758e-7, -1.338e-6, -9.282e-7, 4.101e-7
-0.386, -1.120e-6, -8.500e-7, 2.702e-7, -1.328e-6, -9.251e-7, 4.032e-7
-0.387, -1.109e-6, -8.438e-7, 2.652e-7, -1.315e-6, -9.164e-7, 3.982e-7
-0.388, -1.108e-6, -8.422e-7, 2.659e-7, -1.312e-6, -9.131e-7, 3.985e-7
-0.389, -1.116e-6, -8.467e-7, 2.689e-7, -1.317e-6, -9.159e-7, 4.007e-7
-0.390, -1.108e-6, -8.451e-7, 2.627e-7, -1.306e-6, -9.128e-7, 3.935e-7
-0.391, -1.098e-6, -8.397e-7, 2.585e-7, -1.293e-6, -9.046e-7, 3.882e-7
-0.392, -1.097e-6, -8.381e-7, 2.588e-7, -1.290e-6, -9.014e-7, 3.888e-7
-0.393, -1.105e-6, -8.428e-7, 2.617e-7, -1.296e-6, -9.048e-7, 3.908e-7
-0.394, -1.098e-6, -8.418e-7, 2.565e-7, -1.287e-6, -9.024e-7, 3.846e-7
-0.395, -1.087e-6, -8.359e-7, 2.515e-7, -1.272e-6, -8.940e-7, 3.783e-7
-0.396, -1.087e-6, -8.345e-7, 2.525e-7, -1.270e-6, -8.908e-7, 3.792e-7
-0.397, -1.095e-6, -8.396e-7, 2.555e-7, -1.277e-6, -8.951e-7, 3.818e-7
-0.398, -1.089e-6, -8.387e-7, 2.499e-7, -1.267e-6, -8.924e-7, 3.748e-7
-0.399, -1.079e-6, -8.333e-7, 2.456e-7, -1.254e-6, -8.842e-7, 3.701e-7
-0.400, -1.079e-6, -8.324e-7, 2.465e-7, -1.252e-6, -8.821e-7, 3.702e-7
-0.401, -1.087e-6, -8.375e-7, 2.496e-7, -1.260e-6, -8.867e-7, 3.730e-7
-0.402, -1.081e-6, -8.372e-7, 2.440e-7, -1.251e-6, -8.845e-7, 3.663e-7
-0.403, -1.071e-6, -8.316e-7, 2.397e-7, -1.238e-6, -8.771e-7, 3.607e-7
-0.404, -1.072e-6, -8.312e-7, 2.411e-7, -1.237e-6, -8.752e-7, 3.618e-7
-0.405, -1.081e-6, -8.367e-7, 2.443e-7, -1.244e-6, -8.797e-7, 3.647e-7
-0.406, -1.076e-6, -8.366e-7, 2.395e-7, -1.237e-6, -8.784e-7, 3.584e-7
-0.407, -1.067e-6, -8.315e-7, 2.350e-7, -1.225e-6, -8.713e-7, 3.535e-7
-0.408, -1.067e-6, -8.307e-7, 2.367e-7, -1.224e-6, -8.698e-7, 3.544e-7
-0.409, -1.076e-6, -8.362e-7, 2.398e-7, -1.232e-6, -8.745e-7, 3.575e-7
-0.410, -1.072e-6, -8.364e-7, 2.353e-7, -1.225e-6, -8.734e-7, 3.515e-7
-0.411, -1.062e-6, -8.315e-7, 2.308e-7, -1.213e-6, -8.667e-7, 3.458e-7
-0.412, -1.064e-6, -8.313e-7, 2.327e-7, -1.213e-6, -8.654e-7, 3.479e-7
-0.413, -1.074e-6, -8.372e-7, 2.363e-7, -1.223e-6, -8.716e-7, 3.511e-7
-0.414, -1.069e-6, -8.375e-7, 2.313e-7, -1.215e-6, -8.701e-7, 3.453e-7
-0.415, -1.060e-6, -8.329e-7, 2.276e-7, -1.204e-6, -8.637e-7, 3.403e-7
-0.416, -1.061e-6, -8.324e-7, 2.291e-7, -1.205e-6, -8.629e-7, 3.421e-7
-0.417, -1.071e-6, -8.382e-7, 2.324e-7, -1.213e-6, -8.684e-7, 3.449e-7
-0.418, -1.067e-6, -8.387e-7, 2.284e-7, -1.208e-6, -8.679e-7, 3.400e-7
-0.419, -1.059e-6, -8.347e-7, 2.240e-7, -1.197e-6, -8.625e-7, 3.346e-7
-0.420, -1.060e-6, -8.339e-7, 2.265e-7, -1.198e-6, -8.612e-7, 3.369e-7
-0.421, -1.070e-6, -8.401e-7, 2.301e-7, -1.207e-6, -8.669e-7, 3.401e-7
-0.422, -1.067e-6, -8.410e-7, 2.255e-7, -1.202e-6, -8.671e-7, 3.345e-7
-0.423, -1.058e-6, -8.367e-7, 2.217e-7, -1.192e-6, -8.612e-7, 3.303e-7
-0.424, -1.061e-6, -8.366e-7, 2.242e-7, -1.193e-6, -8.605e-7, 3.329e-7
-0.425, -1.071e-6, -8.429e-7, 2.280e-7, -1.203e-6, -8.669e-7, 3.361e-7
-0.426, -1.067e-6, -8.436e-7, 2.234e-7, -1.198e-6, -8.668e-7, 3.309e-7
-0.427, -1.059e-6, -8.393e-7, 2.199e-7, -1.188e-6, -8.612e-7, 3.266e-7
-0.428, -1.062e-6, -8.398e-7, 2.223e-7, -1.190e-6, -8.611e-7, 3.290e-7
-0.429, -1.072e-6, -8.459e-7, 2.264e-7, -1.201e-6, -8.675e-7, 3.331e-7
-0.430, -1.069e-6, -8.470e-7, 2.220e-7, -1.195e-6, -8.679e-7, 3.273e-7
-0.431, -1.061e-6, -8.426e-7, 2.180e-7, -1.186e-6, -8.623e-7, 3.234e-7
-0.432, -1.064e-6, -8.428e-7, 2.210e-7, -1.188e-6, -8.619e-7, 3.260e-7
-0.433, -1.074e-6, -8.496e-7, 2.247e-7, -1.199e-6, -8.688e-7, 3.300e-7
-0.434, -1.071e-6, -8.508e-7, 2.206e-7, -1.194e-6, -8.692e-7, 3.249e-7
-0.435, -1.063e-6, -8.463e-7, 2.168e-7, -1.184e-6, -8.636e-7, 3.202e-7
-0.436, -1.066e-6, -8.465e-7, 2.195e-7, -1.187e-6, -8.639e-7, 3.234e-7
-0.437, -1.077e-6, -8.536e-7, 2.237e-7, -1.198e-6, -8.708e-7, 3.274e-7
-0.438, -1.073e-6, -8.541e-7, 2.190e-7, -1.192e-6, -8.707e-7, 3.216e-7
-0.439, -1.066e-6, -8.501e-7, 2.158e-7, -1.184e-6, -8.657e-7, 3.184e-7
-0.440, -1.069e-6, -8.508e-7, 2.183e-7, -1.187e-6, -8.664e-7, 3.210e-7
-0.441, -1.080e-6, -8.576e-7, 2.225e-7, -1.198e-6, -8.733e-7, 3.249e-7
-0.442, -1.077e-6, -8.586e-7, 2.184e-7, -1.194e-6, -8.734e-7, 3.202e-7
-0.443, -1.070e-6, -8.548e-7, 2.153e-7, -1.186e-6, -8.687e-7, 3.168e-7
-0.444, -1.073e-6, -8.547e-7, 2.178e-7, -1.188e-6, -8.683e-7, 3.196e-7
-0.445, -1.084e-6, -8.619e-7, 2.220e-7, -1.199e-6, -8.756e-7, 3.234e-7
-0.446, -1.081e-6, -8.629e-7, 2.180e-7, -1.195e-6, -8.764e-7, 3.188e-7
-0.447, -1.074e-6, -8.593e-7, 2.150e-7, -1.188e-6, -8.719e-7, 3.157e-7
-0.448, -1.077e-6, -8.600e-7, 2.173e-7, -1.190e-6, -8.721e-7, 3.181e-7
-0.449, -1.088e-6, -8.664e-7, 2.220e-7, -1.202e-6, -8.787e-7, 3.229e-7
-0.450, -1.086e-6, -8.678e-7, 2.180e-7, -1.197e-6, -8.794e-7, 3.179e-7
-0.451, -1.078e-6, -8.638e-7, 2.145e-7, -1.189e-6, -8.746e-7, 3.144e-7
-0.452, -1.082e-6, -8.642e-7, 2.176e-7, -1.193e-6, -8.753e-7, 3.177e-7
-0.453, -1.093e-6, -8.711e-7, 2.214e-7, -1.204e-6, -8.823e-7, 3.214e-7
-0.454, -1.090e-6, -8.727e-7, 2.174e-7, -1.199e-6, -8.829e-7, 3.166e-7
-0.455, -1.083e-6, -8.686e-7, 2.140e-7, -1.191e-6, -8.783e-7, 3.130e-7
-0.456, -1.087e-6, -8.698e-7, 2.172e-7, -1.196e-6, -8.792e-7, 3.166e-7
-0.457, -1.098e-6, -8.762e-7, 2.215e-7, -1.207e-6, -8.860e-7, 3.211e-7
-0.458, -1.095e-6, -8.775e-7, 2.171e-7, -1.203e-6, -8.870e-7, 3.161e-7
-0.459, -1.088e-6, -8.737e-7, 2.139e-7, -1.195e-6, -8.821e-7, 3.128e-7
-0.460, -1.092e-6, -8.748e-7, 2.167e-7, -1.199e-6, -8.829e-7, 3.161e-7
-0.461, -1.103e-6, -8.816e-7, 2.215e-7, -1.211e-6, -8.899e-7, 3.207e-7
-0.462, -1.100e-6, -8.827e-7, 2.170e-7, -1.206e-6, -8.907e-7, 3.155e-7
-0.463, -1.093e-6, -8.790e-7, 2.138e-7, -1.199e-6, -8.864e-7, 3.128e-7
-0.464, -1.097e-6, -8.800e-7, 2.171e-7, -1.203e-6, -8.874e-7, 3.158e-7
-0.465, -1.108e-6, -8.870e-7, 2.213e-7, -1.214e-6, -8.943e-7, 3.202e-7
-0.466, -1.108e-6, -8.885e-7, 2.192e-7, -1.213e-6, -8.953e-7, 3.177e-7
-0.467, -1.099e-6, -8.844e-7, 2.144e-7, -1.204e-6, -8.908e-7, 3.128e-7
-0.468, -1.103e-6, -8.860e-7, 2.171e-7, -1.208e-6, -8.918e-7, 3.158e-7
-0.469, -1.115e-6, -8.931e-7, 2.217e-7, -1.220e-6, -8.995e-7, 3.207e-7
-0.470, -1.108e-6, -8.913e-7, 2.171e-7, -1.212e-6, -8.969e-7, 3.149e-7
-0.471, -1.104e-6, -8.903e-7, 2.140e-7, -1.207e-6, -8.953e-7, 3.121e-7
-0.472, -1.109e-6, -8.917e-7, 2.174e-7, -1.212e-6, -8.964e-7, 3.156e-7
-0.473, -1.120e-6, -8.984e-7, 2.213e-7, -1.224e-6, -9.033e-7, 3.203e-7
-0.474, -1.115e-6, -8.979e-7, 2.174e-7, -1.218e-6, -9.026e-7, 3.153e-7
-0.475, -1.111e-6, -8.975e-7, 2.134e-7, -1.212e-6, -9.013e-7, 3.111e-7
-0.476, -1.112e-6, -8.955e-7, 2.166e-7, -1.214e-6, -8.993e-7, 3.148e-7
-0.477, -1.126e-6, -9.042e-7, 2.220e-7, -1.229e-6, -9.082e-7, 3.204e-7
-0.478, -1.124e-6, -9.057e-7, 2.180e-7, -1.225e-6, -9.093e-7, 3.160e-7
-0.479, -1.118e-6, -9.039e-7, 2.145e-7, -1.219e-6, -9.064e-7, 3.126e-7
-0.480, -1.121e-6, -9.028e-7, 2.182e-7, -1.222e-6, -9.052e-7, 3.167e-7
-0.481, -1.134e-6, -9.103e-7, 2.232e-7, -1.235e-6, -9.129e-7, 3.219e-7
-0.482, -1.129e-6, -9.113e-7, 2.172e-7, -1.229e-6, -9.138e-7, 3.151e-7
-0.483, -1.123e-6, -9.082e-7, 2.150e-7, -1.223e-6, -9.096e-7, 3.130e-7
-0.484, -1.129e-6, -9.091e-7, 2.203e-7, -1.230e-6, -9.105e-7, 3.191e-7
-0.485, -1.137e-6, -9.152e-7, 2.223e-7, -1.238e-6, -9.170e-7, 3.208e-7
-0.486, -1.136e-6, -9.173e-7, 2.183e-7, -1.235e-6, -9.187e-7, 3.165e-7
-0.487, -1.127e-6, -9.125e-7, 2.147e-7, -1.225e-6, -9.125e-7, 3.128e-7
-0.488, -1.134e-6, -9.154e-7, 2.186e-7, -1.233e-6, -9.159e-7, 3.174e-7
-0.489, -1.145e-6, -9.226e-7, 2.229e-7, -1.245e-6, -9.230e-7, 3.216e-7
-0.490, -1.143e-6, -9.239e-7, 2.190e-7, -1.241e-6, -9.240e-7, 3.170e-7
-0.491, -1.138e-6, -9.215e-7, 2.166e-7, -1.236e-6, -9.209e-7, 3.149e-7
-0.492, -1.139e-6, -9.205e-7, 2.183e-7, -1.236e-6, -9.193e-7, 3.166e-7
-0.493, -1.150e-6, -9.279e-7, 2.225e-7, -1.249e-6, -9.272e-7, 3.217e-7
-0.494, -1.152e-6, -9.308e-7, 2.216e-7, -1.250e-6, -9.296e-7, 3.206e-7
-0.495, -1.144e-6, -9.282e-7, 2.162e-7, -1.241e-6, -9.261e-7, 3.151e-7
-0.496, -1.150e-6, -9.302e-7, 2.195e-7, -1.247e-6, -9.282e-7, 3.184e-7
-0.497, -1.159e-6, -9.352e-7, 2.237e-7, -1.256e-6, -9.332e-7, 3.230e-7
-0.498, -1.157e-6, -9.372e-7, 2.199e-7, -1.254e-6, -9.350e-7, 3.187e-7
-0.499, -1.150e-6, -9.335e-7, 2.167e-7, -1.246e-6, -9.303e-7, 3.155e-7
-0.500, -1.155e-6, -9.348e-7, 2.201e-7, -1.250e-6, -9.312e-7, 3.191e-7
-0.501, -1.166e-6, -9.419e-7, 2.243e-7, -1.263e-6, -9.387e-7, 3.239e-7
-0.502, -1.164e-6, -9.432e-7, 2.204e-7, -1.259e-6, -9.396e-7, 3.196e-7
-0.503, -1.158e-6, -9.402e-7, 2.174e-7, -1.252e-6, -9.355e-7, 3.166e-7
-0.504, -1.162e-6, -9.413e-7, 2.206e-7, -1.257e-6, -9.367e-7, 3.202e-7
-0.505, -1.174e-6, -9.488e-7, 2.248e-7, -1.269e-6, -9.439e-7, 3.248e-7
-0.506, -1.171e-6, -9.502e-7, 2.208e-7, -1.266e-6, -9.454e-7, 3.204e-7
-0.507, -1.165e-6, -9.469e-7, 2.178e-7, -1.258e-6, -9.410e-7, 3.174e-7
-0.508, -1.169e-6, -9.481e-7, 2.212e-7, -1.263e-6, -9.421e-7, 3.213e-7
-0.509, -1.180e-6, -9.551e-7, 2.253e-7, -1.275e-6, -9.497e-7, 3.257e-7
-0.510, -1.178e-6, -9.569e-7, 2.210e-7, -1.272e-6, -9.509e-7, 3.209e-7
-0.511, -1.172e-6, -9.539e-7, 2.182e-7, -1.265e-6, -9.468e-7, 3.182e-7
-0.512, -1.177e-6, -9.552e-7, 2.213e-7, -1.270e-6, -9.480e-7, 3.219e-7
-0.513, -1.188e-6, -9.624e-7, 2.257e-7, -1.282e-6, -9.552e-7, 3.268e-7
-0.514, -1.186e-6, -9.643e-7, 2.215e-7, -1.279e-6, -9.567e-7, 3.221e-7
-0.515, -1.179e-6, -9.607e-7, 2.184e-7, -1.271e-6, -9.524e-7, 3.189e-7
-0.516, -1.184e-6, -9.617e-7, 2.223e-7, -1.277e-6, -9.533e-7, 3.232e-7
-0.517, -1.196e-6, -9.698e-7, 2.264e-7, -1.289e-6, -9.612e-7, 3.276e-7
-0.518, -1.193e-6, -9.711e-7, 2.221e-7, -1.285e-6, -9.622e-7, 3.232e-7
-0.519, -1.187e-6, -9.680e-7, 2.191e-7, -1.278e-6, -9.584e-7, 3.200e-7
-0.520, -1.192e-6, -9.694e-7, 2.226e-7, -1.283e-6, -9.594e-7, 3.241e-7
-0.521, -1.204e-6, -9.770e-7, 2.269e-7, -1.296e-6, -9.669e-7, 3.288e-7
-0.522, -1.201e-6, -9.787e-7, 2.226e-7, -1.293e-6, -9.685e-7, 3.242e-7
-0.523, -1.195e-6, -9.758e-7, 2.196e-7, -1.286e-6, -9.642e-7, 3.214e-7
-0.524, -1.200e-6, -9.768e-7, 2.227e-7, -1.291e-6, -9.655e-7, 3.250e-7
-0.525, -1.212e-6, -9.843e-7, 2.273e-7, -1.303e-6, -9.732e-7, 3.300e-7
-0.526, -1.209e-6, -9.861e-7, 2.232e-7, -1.299e-6, -9.742e-7, 3.251e-7
-0.527, -1.203e-6, -9.829e-7, 2.202e-7, -1.292e-6, -9.702e-7, 3.220e-7
-0.528, -1.207e-6, -9.841e-7, 2.233e-7, -1.297e-6, -9.714e-7, 3.259e-7
-0.529, -1.220e-6, -9.922e-7, 2.276e-7, -1.310e-6, -9.794e-7, 3.304e-7
-0.530, -1.217e-6, -9.938e-7, 2.235e-7, -1.307e-6, -9.805e-7, 3.261e-7
-0.531, -1.211e-6, -9.907e-7, 2.204e-7, -1.299e-6, -9.763e-7, 3.232e-7
-0.532, -1.216e-6, -9.923e-7, 2.239e-7, -1.305e-6, -9.778e-7, 3.270e-7
-0.533, -1.228e-6, -9.997e-7, 2.280e-7, -1.317e-6, -9.854e-7, 3.315e-7
-0.534, -1.226e-6, -1.002e-6, 2.239e-7, -1.314e-6, -9.867e-7, 3.273e-7
-0.535, -1.220e-6, -9.985e-7, 2.212e-7, -1.307e-6, -9.825e-7, 3.246e-7
-0.536, -1.224e-6, -1.000e-6, 2.239e-7, -1.312e-6, -9.841e-7, 3.281e-7
-0.537, -1.236e-6, -1.008e-6, 2.283e-7, -1.324e-6, -9.916e-7, 3.325e-7
-0.538, -1.234e-6, -1.010e-6, 2.245e-7, -1.322e-6, -9.931e-7, 3.286e-7
-0.539, -1.228e-6, -1.007e-6, 2.213e-7, -1.314e-6, -9.889e-7, 3.255e-7
-0.540, -1.232e-6, -1.008e-6, 2.246e-7, -1.319e-6, -9.900e-7, 3.290e-7
-0.541, -1.244e-6, -1.016e-6, 2.286e-7, -1.331e-6, -9.978e-7, 3.335e-7
-0.542, -1.242e-6, -1.018e-6, 2.246e-7, -1.329e-6, -9.997e-7, 3.293e-7
-0.543, -1.236e-6, -1.015e-6, 2.215e-7, -1.322e-6, -9.955e-7, 3.263e-7
-0.544, -1.242e-6, -1.016e-6, 2.253e-7, -1.327e-6, -9.970e-7, 3.305e-7
-0.545, -1.253e-6, -1.024e-6, 2.290e-7, -1.340e-6, -1.004e-6, 3.351e-7
-0.546, -1.251e-6, -1.026e-6, 2.253e-7, -1.337e-6, -1.006e-6, 3.309e-7
-0.547, -1.246e-6, -1.023e-6, 2.225e-7, -1.330e-6, -1.002e-6, 3.281e-7
-0.548, -1.250e-6, -1.025e-6, 2.255e-7, -1.335e-6, -1.004e-6, 3.316e-7
-0.549, -1.262e-6, -1.033e-6, 2.298e-7, -1.347e-6, -1.011e-6, 3.362e-7
-0.550, -1.260e-6, -1.034e-6, 2.257e-7, -1.344e-6, -1.012e-6, 3.316e-7
-0.551, -1.255e-6, -1.032e-6, 2.232e-7, -1.338e-6, -1.009e-6, 3.292e-7
-0.552, -1.259e-6, -1.033e-6, 2.259e-7, -1.343e-6, -1.010e-6, 3.326e-7
-0.553, -1.272e-6, -1.041e-6, 2.304e-7, -1.356e-6, -1.018e-6, 3.373e-7
-0.554, -1.270e-6, -1.044e-6, 2.264e-7, -1.353e-6, -1.020e-6, 3.331e-7
-0.555, -1.263e-6, -1.040e-6, 2.231e-7, -1.346e-6, -1.016e-6, 3.301e-7
-0.556, -1.268e-6, -1.042e-6, 2.264e-7, -1.351e-6, -1.017e-6, 3.342e-7
-0.557, -1.281e-6, -1.050e-6, 2.308e-7, -1.364e-6, -1.025e-6, 3.387e-7
-0.558, -1.279e-6, -1.053e-6, 2.266e-7, -1.361e-6, -1.027e-6, 3.342e-7
-0.559, -1.274e-6, -1.049e-6, 2.243e-7, -1.354e-6, -1.023e-6, 3.314e-7
-0.560, -1.278e-6, -1.051e-6, 2.270e-7, -1.359e-6, -1.024e-6, 3.351e-7
-0.561, -1.290e-6, -1.059e-6, 2.312e-7, -1.372e-6, -1.032e-6, 3.398e-7
-0.562, -1.288e-6, -1.061e-6, 2.273e-7, -1.369e-6, -1.033e-6, 3.355e-7
-0.563, -1.283e-6, -1.058e-6, 2.242e-7, -1.362e-6, -1.030e-6, 3.327e-7
-0.564, -1.287e-6, -1.060e-6, 2.274e-7, -1.368e-6, -1.031e-6, 3.365e-7
-0.565, -1.300e-6, -1.068e-6, 2.315e-7, -1.380e-6, -1.040e-6, 3.408e-7
-0.566, -1.299e-6, -1.071e-6, 2.282e-7, -1.379e-6, -1.042e-6, 3.372e-7
-0.567, -1.293e-6, -1.068e-6, 2.251e-7, -1.371e-6, -1.037e-6, 3.340e-7
-0.568, -1.298e-6, -1.070e-6, 2.280e-7, -1.377e-6, -1.039e-6, 3.376e-7
-0.569, -1.310e-6, -1.077e-6, 2.324e-7, -1.389e-6, -1.047e-6, 3.425e-7
-0.570, -1.308e-6, -1.080e-6, 2.285e-7, -1.387e-6, -1.049e-6, 3.380e-7
-0.571, -1.302e-6, -1.077e-6, 2.254e-7, -1.380e-6, -1.045e-6, 3.354e-7
-0.572, -1.308e-6, -1.079e-6, 2.291e-7, -1.386e-6, -1.046e-6, 3.393e-7
-0.573, -1.321e-6, -1.088e-6, 2.329e-7, -1.398e-6, -1.055e-6, 3.437e-7
-0.574, -1.318e-6, -1.089e-6, 2.290e-7, -1.395e-6, -1.056e-6, 3.394e-7
-0.575, -1.313e-6, -1.087e-6, 2.260e-7, -1.389e-6, -1.052e-6, 3.364e-7
-0.576, -1.317e-6, -1.089e-6, 2.286e-7, -1.394e-6, -1.054e-6, 3.402e-7
-0.577, -1.330e-6, -1.097e-6, 2.332e-7, -1.407e-6, -1.062e-6, 3.449e-7
-0.578, -1.329e-6, -1.100e-6, 2.293e-7, -1.405e-6, -1.064e-6, 3.408e-7
-0.579, -1.323e-6, -1.096e-6, 2.263e-7, -1.398e-6, -1.060e-6, 3.379e-7
-0.580, -1.329e-6, -1.099e-6, 2.298e-7, -1.403e-6, -1.062e-6, 3.417e-7
-0.581, -1.341e-6, -1.107e-6, 2.340e-7, -1.417e-6, -1.070e-6, 3.464e-7
-0.582, -1.340e-6, -1.110e-6, 2.298e-7, -1.413e-6, -1.072e-6, 3.416e-7
-0.583, -1.334e-6, -1.106e-6, 2.275e-7, -1.407e-6, -1.068e-6, 3.390e-7
-0.584, -1.339e-6, -1.109e-6, 2.300e-7, -1.413e-6, -1.070e-6, 3.429e-7
-0.585, -1.352e-6, -1.118e-6, 2.346e-7, -1.426e-6, -1.079e-6, 3.470e-7
-0.586, -1.350e-6, -1.119e-6, 2.306e-7, -1.423e-6, -1.080e-6, 3.431e-7
-0.587, -1.345e-6, -1.117e-6, 2.278e-7, -1.417e-6, -1.077e-6, 3.403e-7
-0.588, -1.351e-6, -1.119e-6, 2.311e-7, -1.422e-6, -1.078e-6, 3.441e-7
-0.589, -1.363e-6, -1.127e-6, 2.355e-7, -1.435e-6, -1.087e-6, 3.488e-7
-0.590, -1.361e-6, -1.130e-6, 2.311e-7, -1.433e-6, -1.089e-6, 3.441e-7
-0.591, -1.356e-6, -1.128e-6, 2.287e-7, -1.427e-6, -1.085e-6, 3.416e-7
-0.592, -1.362e-6, -1.130e-6, 2.318e-7, -1.433e-6, -1.087e-6, 3.456e-7
-0.593, -1.374e-6, -1.138e-6, 2.360e-7, -1.445e-6, -1.095e-6, 3.500e-7
-0.594, -1.374e-6, -1.141e-6, 2.323e-7, -1.443e-6, -1.097e-6, 3.458e-7
-0.595, -1.368e-6, -1.138e-6, 2.294e-7, -1.436e-6, -1.093e-6, 3.429e-7
-0.596, -1.374e-6, -1.141e-6, 2.329e-7, -1.442e-6, -1.096e-6, 3.469e-7
-0.597, -1.386e-6, -1.149e-6, 2.372e-7, -1.456e-6, -1.104e-6, 3.516e-7
-0.598, -1.385e-6, -1.152e-6, 2.332e-7, -1.453e-6, -1.106e-6, 3.470e-7
-0.599, -1.380e-6, -1.149e-6, 2.302e-7, -1.447e-6, -1.103e-6, 3.444e-7
-0.600, -1.385e-6, -1.152e-6, 2.333e-7, -1.453e-6, -1.105e-6, 3.479e-7
