Nov. 2, 2022   13:07:40
Square Wave Voltammetry
File: c:\users\fatemeh\onedrive - university of waterloo\ideation lab\experiments\antibiotic detection\vancomycin sensing (mahmoud's project)\vancomycin animal experiments\nov2.22\e#2, w new mn\in buffer\0um, m1.txt
Data Source:  Experiment
Instrument Model:  CHI1040C
Header: 
Note: 

Init E (V) = 0.2
Final E (V) = -0.7
Incr E (V) = 0.001
Amplitude (V) = 0.025
Frequency (Hz) = 100
Quiet Time (sec) = 20
Sensitivity (A/V) = 1e-4

E3 Scan On
Sens 3 = 1e-006

Results:

Channel 1:
Difference:

Forward:

Reverse:

Channel 3:
Difference:

Forward:

Reverse:
Ep = -0.304V
ip = 3.811e-7A
Ah = 1.443e-8VA

Potential/V,1,2,3

0.16,-4.86E-07,-5.39E-07,-3.31E-07
0.159,-4.91E-07,-5.28E-07,-3.30E-07
0.158,-4.91E-07,-5.33E-07,-3.30E-07
0.157,-4.89E-07,-5.32E-07,-3.30E-07
0.156,-4.89E-07,-5.32E-07,-3.30E-07
0.155,-4.82E-07,-5.43E-07,-3.30E-07
0.154,-4.94E-07,-5.39E-07,-3.31E-07
0.153,-4.89E-07,-5.32E-07,-3.30E-07
0.152,-4.85E-07,-5.40E-07,-3.30E-07
0.151,-4.89E-07,-5.36E-07,-3.28E-07
0.15,-4.83E-07,-5.32E-07,-3.28E-07
0.149,-4.81E-07,-5.23E-07,-3.28E-07
0.148,-4.86E-07,-5.40E-07,-3.28E-07
0.147,-4.79E-07,-5.30E-07,-3.28E-07
0.146,-4.78E-07,-5.29E-07,-3.28E-07
0.145,-4.80E-07,-5.34E-07,-3.28E-07
0.144,-4.80E-07,-5.31E-07,-3.28E-07
0.143,-4.81E-07,-5.30E-07,-3.28E-07
0.142,-4.86E-07,-5.33E-07,-3.28E-07
0.141,-4.86E-07,-5.34E-07,-3.28E-07
0.14,-4.76E-07,-5.27E-07,-3.28E-07
0.139,-4.82E-07,-5.27E-07,-3.28E-07
0.138,-4.78E-07,-5.30E-07,-3.27E-07
0.137,-4.69E-07,-5.31E-07,-3.27E-07
0.136,-4.80E-07,-5.28E-07,-3.26E-07
0.135,-4.72E-07,-5.31E-07,-3.26E-07
0.134,-4.75E-07,-5.20E-07,-3.26E-07
0.133,-4.76E-07,-5.20E-07,-3.25E-07
0.132,-4.78E-07,-5.29E-07,-3.26E-07
0.131,-4.81E-07,-5.21E-07,-3.24E-07
0.13,-4.73E-07,-5.31E-07,-3.23E-07
0.129,-4.77E-07,-5.22E-07,-3.23E-07
0.128,-4.68E-07,-5.16E-07,-3.23E-07
0.127,-4.71E-07,-5.20E-07,-3.23E-07
0.126,-4.75E-07,-5.20E-07,-3.22E-07
0.125,-4.70E-07,-5.15E-07,-3.22E-07
0.124,-4.74E-07,-5.18E-07,-3.21E-07
0.123,-4.71E-07,-5.18E-07,-3.21E-07
0.122,-4.71E-07,-5.23E-07,-3.20E-07
0.121,-4.68E-07,-5.15E-07,-3.20E-07
0.12,-4.72E-07,-5.27E-07,-3.19E-07
0.119,-4.72E-07,-5.13E-07,-3.19E-07
0.118,-4.65E-07,-5.17E-07,-3.18E-07
0.117,-4.68E-07,-5.21E-07,-3.18E-07
0.116,-4.69E-07,-5.23E-07,-3.17E-07
0.115,-4.78E-07,-5.17E-07,-3.16E-07
0.114,-4.67E-07,-5.11E-07,-3.16E-07
0.113,-4.68E-07,-5.24E-07,-3.15E-07
0.112,-4.64E-07,-5.17E-07,-3.16E-07
0.111,-4.74E-07,-5.08E-07,-3.16E-07
0.11,-4.64E-07,-5.23E-07,-3.16E-07
0.109,-4.65E-07,-4.98E-07,-3.15E-07
0.108,-4.63E-07,-5.11E-07,-3.14E-07
0.107,-4.65E-07,-5.17E-07,-3.14E-07
0.106,-4.64E-07,-5.17E-07,-3.13E-07
0.105,-4.74E-07,-5.13E-07,-3.13E-07
0.104,-4.63E-07,-5.10E-07,-3.12E-07
0.103,-4.62E-07,-5.09E-07,-3.12E-07
0.102,-4.62E-07,-5.07E-07,-3.13E-07
0.101,-4.66E-07,-5.04E-07,-3.13E-07
0.1,-4.71E-07,-5.07E-07,-3.13E-07
0.099,-4.69E-07,-5.07E-07,-3.12E-07
0.098,-4.65E-07,-5.02E-07,-3.12E-07
0.097,-4.67E-07,-5.10E-07,-3.12E-07
0.096,-4.72E-07,-5.11E-07,-3.12E-07
0.095,-4.63E-07,-5.02E-07,-3.12E-07
0.094,-4.69E-07,-4.91E-07,-3.12E-07
0.093,-4.61E-07,-5.05E-07,-3.12E-07
0.092,-4.63E-07,-5.01E-07,-3.11E-07
0.091,-4.66E-07,-5.09E-07,-3.11E-07
0.09,-4.60E-07,-5.04E-07,-3.11E-07
0.089,-4.65E-07,-5.00E-07,-3.11E-07
0.088,-4.59E-07,-5.06E-07,-3.10E-07
0.087,-4.55E-07,-5.06E-07,-3.10E-07
0.086,-4.67E-07,-5.04E-07,-3.10E-07
0.085,-4.61E-07,-5.06E-07,-3.10E-07
0.084,-4.68E-07,-4.96E-07,-3.10E-07
0.083,-4.69E-07,-5.03E-07,-3.09E-07
0.082,-4.59E-07,-4.98E-07,-3.09E-07
0.081,-4.59E-07,-4.99E-07,-3.09E-07
0.08,-4.55E-07,-5.00E-07,-3.09E-07
0.079,-4.56E-07,-5.03E-07,-3.09E-07
0.078,-4.60E-07,-4.97E-07,-3.08E-07
0.077,-4.64E-07,-5.00E-07,-3.08E-07
0.076,-4.62E-07,-4.98E-07,-3.08E-07
0.075,-4.66E-07,-4.90E-07,-3.07E-07
0.074,-4.56E-07,-4.94E-07,-3.07E-07
0.073,-4.60E-07,-4.89E-07,-3.07E-07
0.072,-4.61E-07,-4.90E-07,-3.07E-07
0.071,-4.55E-07,-4.94E-07,-3.07E-07
0.07,-4.55E-07,-5.01E-07,-3.07E-07
0.069,-4.60E-07,-4.86E-07,-3.07E-07
0.068,-4.59E-07,-4.95E-07,-3.06E-07
0.067,-4.58E-07,-4.94E-07,-3.06E-07
0.066,-4.57E-07,-4.95E-07,-3.06E-07
0.065,-4.60E-07,-4.93E-07,-3.06E-07
0.064,-4.59E-07,-4.86E-07,-3.06E-07
0.063,-4.55E-07,-4.82E-07,-3.06E-07
0.062,-4.55E-07,-4.90E-07,-3.06E-07
0.061,-4.55E-07,-4.87E-07,-3.06E-07
0.06,-4.56E-07,-4.87E-07,-3.06E-07
0.059,-4.58E-07,-4.92E-07,-3.06E-07
0.058,-4.52E-07,-4.95E-07,-3.06E-07
0.057,-4.52E-07,-4.89E-07,-3.07E-07
0.056,-4.60E-07,-4.88E-07,-3.07E-07
0.055,-4.54E-07,-4.85E-07,-3.07E-07
0.054,-4.54E-07,-4.82E-07,-3.07E-07
0.053,-4.50E-07,-4.86E-07,-3.07E-07
0.052,-4.55E-07,-4.83E-07,-3.07E-07
0.051,-4.45E-07,-4.76E-07,-3.08E-07
0.05,-4.48E-07,-4.86E-07,-3.08E-07
0.049,-4.51E-07,-4.79E-07,-3.08E-07
0.048,-4.48E-07,-4.91E-07,-3.08E-07
0.047,-4.50E-07,-4.89E-07,-3.08E-07
0.046,-4.68E-07,-4.75E-07,-3.08E-07
0.045,-4.47E-07,-4.83E-07,-3.08E-07
0.044,-4.52E-07,-4.71E-07,-3.08E-07
0.043,-4.38E-07,-4.86E-07,-3.09E-07
0.042,-4.51E-07,-4.86E-07,-3.09E-07
0.041,-4.44E-07,-4.68E-07,-3.09E-07
0.04,-4.60E-07,-4.79E-07,-3.09E-07
0.039,-4.55E-07,-4.79E-07,-3.10E-07
0.038,-4.45E-07,-4.80E-07,-3.10E-07
0.037,-4.47E-07,-4.84E-07,-3.09E-07
0.036,-4.48E-07,-4.79E-07,-3.09E-07
0.035,-4.48E-07,-4.80E-07,-3.10E-07
0.034,-4.48E-07,-4.68E-07,-3.10E-07
0.033,-4.34E-07,-4.68E-07,-3.10E-07
0.032,-4.47E-07,-4.84E-07,-3.10E-07
0.031,-4.45E-07,-4.77E-07,-3.10E-07
0.03,-4.48E-07,-4.81E-07,-3.10E-07
0.029,-4.42E-07,-4.83E-07,-3.10E-07
0.028,-4.38E-07,-4.74E-07,-3.10E-07
0.027,-4.37E-07,-4.83E-07,-3.10E-07
0.026,-4.45E-07,-4.71E-07,-3.11E-07
0.025,-4.43E-07,-4.79E-07,-3.11E-07
0.024,-4.44E-07,-4.78E-07,-3.11E-07
0.023,-4.54E-07,-4.74E-07,-3.11E-07
0.022,-4.43E-07,-4.65E-07,-3.11E-07
0.021,-4.45E-07,-4.75E-07,-3.11E-07
0.02,-4.48E-07,-4.74E-07,-3.11E-07
0.019,-4.50E-07,-4.69E-07,-3.12E-07
0.018,-4.47E-07,-4.73E-07,-3.12E-07
0.017,-4.42E-07,-4.70E-07,-3.13E-07
0.016,-4.36E-07,-4.73E-07,-3.13E-07
0.015,-4.44E-07,-4.66E-07,-3.13E-07
0.014,-4.37E-07,-4.72E-07,-3.13E-07
0.013,-4.28E-07,-4.69E-07,-3.14E-07
0.012,-4.47E-07,-4.59E-07,-3.14E-07
0.011,-4.50E-07,-4.69E-07,-3.14E-07
0.01,-4.50E-07,-4.69E-07,-3.14E-07
0.009,-4.42E-07,-4.67E-07,-3.14E-07
0.008,-4.40E-07,-4.69E-07,-3.14E-07
0.007,-4.39E-07,-4.63E-07,-3.14E-07
0.006,-4.43E-07,-4.66E-07,-3.14E-07
0.005,-4.40E-07,-4.61E-07,-3.13E-07
0.004,-4.32E-07,-4.63E-07,-3.13E-07
0.003,-4.33E-07,-4.64E-07,-3.14E-07
0.002,-4.45E-07,-4.67E-07,-3.13E-07
0.001,-4.35E-07,-4.69E-07,-3.14E-07
0,-4.39E-07,-4.62E-07,-3.14E-07
-0.001,-4.42E-07,-4.63E-07,-3.14E-07
-0.002,-4.45E-07,-4.64E-07,-3.14E-07
-0.003,-4.39E-07,-4.58E-07,-3.14E-07
-0.004,-4.42E-07,-4.69E-07,-3.14E-07
-0.005,-4.42E-07,-4.62E-07,-3.14E-07
-0.006,-4.29E-07,-4.53E-07,-3.14E-07
-0.007,-4.32E-07,-4.59E-07,-3.14E-07
-0.008,-4.40E-07,-4.69E-07,-3.14E-07
-0.009,-4.40E-07,-4.64E-07,-3.14E-07
-0.01,-4.35E-07,-4.62E-07,-3.13E-07
-0.011,-4.31E-07,-4.61E-07,-3.13E-07
-0.012,-4.33E-07,-4.60E-07,-3.13E-07
-0.013,-4.39E-07,-4.62E-07,-3.13E-07
-0.014,-4.35E-07,-4.68E-07,-3.13E-07
-0.015,-4.41E-07,-4.51E-07,-3.13E-07
-0.016,-4.24E-07,-4.65E-07,-3.13E-07
-0.017,-4.29E-07,-4.51E-07,-3.13E-07
-0.018,-4.35E-07,-4.62E-07,-3.13E-07
-0.019,-4.39E-07,-4.60E-07,-3.13E-07
-0.02,-4.41E-07,-4.64E-07,-3.13E-07
-0.021,-4.35E-07,-4.51E-07,-3.13E-07
-0.022,-4.36E-07,-4.60E-07,-3.13E-07
-0.023,-4.37E-07,-4.54E-07,-3.13E-07
-0.024,-4.40E-07,-4.64E-07,-3.13E-07
-0.025,-4.40E-07,-4.63E-07,-3.14E-07
-0.026,-4.35E-07,-4.55E-07,-3.14E-07
-0.027,-4.33E-07,-4.60E-07,-3.14E-07
-0.028,-4.41E-07,-4.59E-07,-3.14E-07
-0.029,-4.30E-07,-4.56E-07,-3.14E-07
-0.03,-4.30E-07,-4.46E-07,-3.14E-07
-0.031,-4.31E-07,-4.54E-07,-3.14E-07
-0.032,-4.27E-07,-4.61E-07,-3.14E-07
-0.033,-4.41E-07,-4.68E-07,-3.14E-07
-0.034,-4.33E-07,-4.50E-07,-3.14E-07
-0.035,-4.41E-07,-4.57E-07,-3.14E-07
-0.036,-4.31E-07,-4.47E-07,-3.14E-07
-0.037,-4.28E-07,-4.52E-07,-3.15E-07
-0.038,-4.28E-07,-4.53E-07,-3.15E-07
-0.039,-4.32E-07,-4.49E-07,-3.14E-07
-0.04,-4.37E-07,-4.63E-07,-3.14E-07
-0.041,-4.25E-07,-4.46E-07,-3.15E-07
-0.042,-4.36E-07,-4.58E-07,-3.15E-07
-0.043,-4.30E-07,-4.58E-07,-3.15E-07
-0.044,-4.43E-07,-4.58E-07,-3.15E-07
-0.045,-4.36E-07,-4.51E-07,-3.16E-07
-0.046,-4.42E-07,-4.49E-07,-3.16E-07
-0.047,-4.31E-07,-4.61E-07,-3.17E-07
-0.048,-4.43E-07,-4.56E-07,-3.17E-07
-0.049,-4.32E-07,-4.56E-07,-3.17E-07
-0.05,-4.37E-07,-4.61E-07,-3.17E-07
-0.051,-4.33E-07,-4.53E-07,-3.17E-07
-0.052,-4.27E-07,-4.59E-07,-3.17E-07
-0.053,-4.30E-07,-4.63E-07,-3.17E-07
-0.054,-4.34E-07,-4.48E-07,-3.17E-07
-0.055,-4.43E-07,-4.48E-07,-3.17E-07
-0.056,-4.45E-07,-4.56E-07,-3.17E-07
-0.057,-4.37E-07,-4.54E-07,-3.17E-07
-0.058,-4.40E-07,-4.53E-07,-3.17E-07
-0.059,-4.43E-07,-4.53E-07,-3.18E-07
-0.06,-4.37E-07,-4.46E-07,-3.18E-07
-0.061,-4.37E-07,-4.53E-07,-3.18E-07
-0.062,-4.38E-07,-4.61E-07,-3.19E-07
-0.063,-4.47E-07,-4.60E-07,-3.19E-07
-0.064,-4.48E-07,-4.55E-07,-3.19E-07
-0.065,-4.41E-07,-4.67E-07,-3.19E-07
-0.066,-4.42E-07,-4.60E-07,-3.20E-07
-0.067,-4.40E-07,-4.50E-07,-3.20E-07
-0.068,-4.50E-07,-4.59E-07,-3.20E-07
-0.069,-4.49E-07,-4.57E-07,-3.20E-07
-0.07,-4.49E-07,-4.53E-07,-3.21E-07
-0.071,-4.53E-07,-4.55E-07,-3.21E-07
-0.072,-4.42E-07,-4.61E-07,-3.21E-07
-0.073,-4.47E-07,-4.57E-07,-3.21E-07
-0.074,-4.49E-07,-4.62E-07,-3.22E-07
-0.075,-4.49E-07,-4.61E-07,-3.22E-07
-0.076,-4.49E-07,-4.61E-07,-3.22E-07
-0.077,-4.46E-07,-4.49E-07,-3.22E-07
-0.078,-4.41E-07,-4.52E-07,-3.22E-07
-0.079,-4.51E-07,-4.57E-07,-3.22E-07
-0.08,-4.55E-07,-4.56E-07,-3.22E-07
-0.081,-4.48E-07,-4.55E-07,-3.22E-07
-0.082,-4.43E-07,-4.52E-07,-3.22E-07
-0.083,-4.49E-07,-4.56E-07,-3.22E-07
-0.084,-4.48E-07,-4.55E-07,-3.22E-07
-0.085,-4.41E-07,-4.60E-07,-3.22E-07
-0.086,-4.51E-07,-4.52E-07,-3.22E-07
-0.087,-4.49E-07,-4.66E-07,-3.22E-07
-0.088,-4.43E-07,-4.60E-07,-3.22E-07
-0.089,-4.48E-07,-4.55E-07,-3.23E-07
-0.09,-4.58E-07,-4.54E-07,-3.23E-07
-0.091,-4.47E-07,-4.58E-07,-3.23E-07
-0.092,-4.54E-07,-4.47E-07,-3.23E-07
-0.093,-4.45E-07,-4.63E-07,-3.23E-07
-0.094,-4.53E-07,-4.70E-07,-3.23E-07
-0.095,-4.49E-07,-4.60E-07,-3.23E-07
-0.096,-4.49E-07,-4.56E-07,-3.23E-07
-0.097,-4.57E-07,-4.62E-07,-3.23E-07
-0.098,-4.45E-07,-4.51E-07,-3.23E-07
-0.099,-4.58E-07,-4.56E-07,-3.22E-07
-0.1,-4.54E-07,-4.70E-07,-3.22E-07
-0.101,-4.52E-07,-4.50E-07,-3.22E-07
-0.102,-4.48E-07,-4.53E-07,-3.22E-07
-0.103,-4.52E-07,-4.65E-07,-3.22E-07
-0.104,-4.53E-07,-4.59E-07,-3.22E-07
-0.105,-4.58E-07,-4.55E-07,-3.22E-07
-0.106,-4.49E-07,-4.48E-07,-3.22E-07
-0.107,-4.52E-07,-4.53E-07,-3.22E-07
-0.108,-4.65E-07,-4.51E-07,-3.22E-07
-0.109,-4.47E-07,-4.54E-07,-3.23E-07
-0.11,-4.50E-07,-4.61E-07,-3.22E-07
-0.111,-4.47E-07,-4.56E-07,-3.22E-07
-0.112,-4.50E-07,-4.46E-07,-3.22E-07
-0.113,-4.49E-07,-4.52E-07,-3.23E-07
-0.114,-4.45E-07,-4.56E-07,-3.22E-07
-0.115,-4.58E-07,-4.52E-07,-3.23E-07
-0.116,-4.52E-07,-4.55E-07,-3.22E-07
-0.117,-4.55E-07,-4.56E-07,-3.22E-07
-0.118,-4.63E-07,-4.61E-07,-3.22E-07
-0.119,-4.55E-07,-4.60E-07,-3.22E-07
-0.12,-4.60E-07,-4.55E-07,-3.22E-07
-0.121,-4.49E-07,-4.56E-07,-3.22E-07
-0.122,-4.55E-07,-4.49E-07,-3.22E-07
-0.123,-4.66E-07,-4.52E-07,-3.22E-07
-0.124,-4.55E-07,-4.52E-07,-3.22E-07
-0.125,-4.60E-07,-4.53E-07,-3.21E-07
-0.126,-4.54E-07,-4.49E-07,-3.20E-07
-0.127,-4.53E-07,-4.56E-07,-3.20E-07
-0.128,-4.62E-07,-4.52E-07,-3.19E-07
-0.129,-4.63E-07,-4.42E-07,-3.19E-07
-0.13,-4.63E-07,-4.52E-07,-3.19E-07
-0.131,-4.57E-07,-4.46E-07,-3.19E-07
-0.132,-4.57E-07,-4.47E-07,-3.18E-07
-0.133,-4.55E-07,-4.55E-07,-3.18E-07
-0.134,-4.50E-07,-4.48E-07,-3.18E-07
-0.135,-4.55E-07,-4.63E-07,-3.18E-07
-0.136,-4.49E-07,-4.46E-07,-3.18E-07
-0.137,-4.58E-07,-4.46E-07,-3.17E-07
-0.138,-4.54E-07,-4.50E-07,-3.17E-07
-0.139,-4.61E-07,-4.45E-07,-3.17E-07
-0.14,-4.57E-07,-4.61E-07,-3.17E-07
-0.141,-4.53E-07,-4.47E-07,-3.16E-07
-0.142,-4.67E-07,-4.44E-07,-3.16E-07
-0.143,-4.56E-07,-4.51E-07,-3.16E-07
-0.144,-4.68E-07,-4.49E-07,-3.15E-07
-0.145,-4.58E-07,-4.47E-07,-3.15E-07
-0.146,-4.60E-07,-4.50E-07,-3.15E-07
-0.147,-4.67E-07,-4.44E-07,-3.14E-07
-0.148,-4.55E-07,-4.53E-07,-3.14E-07
-0.149,-4.58E-07,-4.55E-07,-3.14E-07
-0.15,-4.67E-07,-4.58E-07,-3.14E-07
-0.151,-4.66E-07,-4.46E-07,-3.13E-07
-0.152,-4.59E-07,-4.46E-07,-3.13E-07
-0.153,-4.58E-07,-4.58E-07,-3.13E-07
-0.154,-4.59E-07,-4.51E-07,-3.13E-07
-0.155,-4.62E-07,-4.50E-07,-3.13E-07
-0.156,-4.57E-07,-4.56E-07,-3.13E-07
-0.157,-4.64E-07,-4.49E-07,-3.13E-07
-0.158,-4.58E-07,-4.58E-07,-3.13E-07
-0.159,-4.63E-07,-4.56E-07,-3.12E-07
-0.16,-4.63E-07,-4.64E-07,-3.13E-07
-0.161,-4.66E-07,-4.64E-07,-3.12E-07
-0.162,-4.66E-07,-4.51E-07,-3.12E-07
-0.163,-4.63E-07,-4.54E-07,-3.12E-07
-0.164,-4.59E-07,-4.58E-07,-3.12E-07
-0.165,-4.71E-07,-4.62E-07,-3.12E-07
-0.166,-4.64E-07,-4.63E-07,-3.12E-07
-0.167,-4.73E-07,-4.60E-07,-3.12E-07
-0.168,-4.73E-07,-4.61E-07,-3.12E-07
-0.169,-4.67E-07,-4.62E-07,-3.12E-07
-0.17,-4.71E-07,-4.54E-07,-3.11E-07
-0.171,-4.69E-07,-4.72E-07,-3.11E-07
-0.172,-4.68E-07,-4.61E-07,-3.10E-07
-0.173,-4.69E-07,-4.60E-07,-3.10E-07
-0.174,-4.69E-07,-4.66E-07,-3.10E-07
-0.175,-4.73E-07,-4.67E-07,-3.10E-07
-0.176,-4.72E-07,-4.66E-07,-3.09E-07
-0.177,-4.75E-07,-4.71E-07,-3.09E-07
-0.178,-4.76E-07,-4.71E-07,-3.09E-07
-0.179,-4.70E-07,-4.78E-07,-3.08E-07
-0.18,-4.76E-07,-4.70E-07,-3.08E-07
-0.181,-4.78E-07,-4.75E-07,-3.08E-07
-0.182,-4.79E-07,-4.71E-07,-3.08E-07
-0.183,-4.82E-07,-4.77E-07,-3.08E-07
-0.184,-4.80E-07,-4.87E-07,-3.07E-07
-0.185,-4.80E-07,-4.78E-07,-3.07E-07
-0.186,-4.88E-07,-4.73E-07,-3.06E-07
-0.187,-4.84E-07,-4.80E-07,-3.06E-07
-0.188,-4.89E-07,-4.85E-07,-3.06E-07
-0.189,-4.95E-07,-4.87E-07,-3.06E-07
-0.19,-4.87E-07,-4.96E-07,-3.06E-07
-0.191,-4.90E-07,-4.92E-07,-3.05E-07
-0.192,-4.93E-07,-5.02E-07,-3.05E-07
-0.193,-4.93E-07,-5.02E-07,-3.05E-07
-0.194,-5.01E-07,-5.08E-07,-3.05E-07
-0.195,-5.04E-07,-5.02E-07,-3.04E-07
-0.196,-5.02E-07,-5.08E-07,-3.04E-07
-0.197,-5.04E-07,-5.12E-07,-3.04E-07
-0.198,-5.02E-07,-5.19E-07,-3.04E-07
-0.199,-5.15E-07,-5.29E-07,-3.04E-07
-0.2,-5.05E-07,-5.22E-07,-3.04E-07
-0.201,-5.03E-07,-5.20E-07,-3.04E-07
-0.202,-5.12E-07,-5.21E-07,-3.04E-07
-0.203,-5.13E-07,-5.35E-07,-3.04E-07
-0.204,-5.17E-07,-5.44E-07,-3.04E-07
-0.205,-5.21E-07,-5.56E-07,-3.03E-07
-0.206,-5.24E-07,-5.51E-07,-3.03E-07
-0.207,-5.23E-07,-5.54E-07,-3.03E-07
-0.208,-5.22E-07,-5.74E-07,-3.03E-07
-0.209,-5.44E-07,-5.76E-07,-3.03E-07
-0.21,-5.46E-07,-5.80E-07,-3.04E-07
-0.211,-5.41E-07,-5.91E-07,-3.03E-07
-0.212,-5.38E-07,-5.96E-07,-3.03E-07
-0.213,-5.42E-07,-5.98E-07,-3.04E-07
-0.214,-5.47E-07,-6.13E-07,-3.03E-07
-0.215,-5.61E-07,-6.19E-07,-3.04E-07
-0.216,-5.60E-07,-6.28E-07,-3.04E-07
-0.217,-5.57E-07,-6.33E-07,-3.04E-07
-0.218,-5.69E-07,-6.50E-07,-3.04E-07
-0.219,-5.77E-07,-6.49E-07,-3.04E-07
-0.22,-5.68E-07,-6.70E-07,-3.04E-07
-0.221,-5.77E-07,-6.73E-07,-3.04E-07
-0.222,-5.83E-07,-6.83E-07,-3.04E-07
-0.223,-5.94E-07,-6.93E-07,-3.04E-07
-0.224,-5.94E-07,-6.99E-07,-3.03E-07
-0.225,-6.10E-07,-7.17E-07,-3.03E-07
-0.226,-6.13E-07,-7.33E-07,-3.03E-07
-0.227,-6.14E-07,-7.47E-07,-3.03E-07
-0.228,-6.24E-07,-7.62E-07,-3.04E-07
-0.229,-6.28E-07,-7.75E-07,-3.04E-07
-0.23,-6.33E-07,-7.91E-07,-3.03E-07
-0.231,-6.48E-07,-8.03E-07,-3.03E-07
-0.232,-6.49E-07,-8.25E-07,-3.04E-07
-0.233,-6.53E-07,-8.35E-07,-3.04E-07
-0.234,-6.61E-07,-8.57E-07,-3.04E-07
-0.235,-6.71E-07,-8.65E-07,-3.04E-07
-0.236,-6.79E-07,-8.83E-07,-3.04E-07
-0.237,-6.84E-07,-9.03E-07,-3.04E-07
-0.238,-7.03E-07,-9.29E-07,-3.03E-07
-0.239,-7.10E-07,-9.46E-07,-3.03E-07
-0.24,-7.23E-07,-9.63E-07,-3.03E-07
-0.241,-7.23E-07,-9.87E-07,-3.03E-07
-0.242,-7.26E-07,-1.00E-06,-3.03E-07
-0.243,-7.53E-07,-1.03E-06,-3.03E-07
-0.244,-7.67E-07,-1.05E-06,-3.03E-07
-0.245,-7.70E-07,-1.07E-06,-3.03E-07
-0.246,-7.76E-07,-1.09E-06,-3.03E-07
-0.247,-7.97E-07,-1.12E-06,-3.03E-07
-0.248,-7.98E-07,-1.14E-06,-3.02E-07
-0.249,-8.18E-07,-1.17E-06,-3.03E-07
-0.25,-8.29E-07,-1.18E-06,-3.02E-07
-0.251,-8.33E-07,-1.21E-06,-3.02E-07
-0.252,-8.59E-07,-1.24E-06,-3.02E-07
-0.253,-8.65E-07,-1.26E-06,-3.02E-07
-0.254,-8.82E-07,-1.29E-06,-3.02E-07
-0.255,-9.01E-07,-1.30E-06,-3.02E-07
-0.256,-9.08E-07,-1.33E-06,-3.02E-07
-0.257,-9.22E-07,-1.36E-06,-3.02E-07
-0.258,-9.41E-07,-1.39E-06,-3.02E-07
-0.259,-9.62E-07,-1.41E-06,-3.02E-07
-0.26,-9.80E-07,-1.43E-06,-3.02E-07
-0.261,-9.84E-07,-1.45E-06,-3.02E-07
-0.262,-1.01E-06,-1.48E-06,-3.02E-07
-0.263,-1.02E-06,-1.51E-06,-3.02E-07
-0.264,-1.04E-06,-1.53E-06,-3.02E-07
-0.265,-1.05E-06,-1.56E-06,-3.02E-07
-0.266,-1.08E-06,-1.57E-06,-3.02E-07
-0.267,-1.09E-06,-1.59E-06,-3.02E-07
-0.268,-1.10E-06,-1.61E-06,-3.02E-07
-0.269,-1.12E-06,-1.64E-06,-3.02E-07
-0.27,-1.15E-06,-1.66E-06,-3.02E-07
-0.271,-1.17E-06,-1.67E-06,-3.02E-07
-0.272,-1.17E-06,-1.69E-06,-3.03E-07
-0.273,-1.21E-06,-1.71E-06,-3.03E-07
-0.274,-1.22E-06,-1.72E-06,-3.03E-07
-0.275,-1.24E-06,-1.74E-06,-3.04E-07
-0.276,-1.25E-06,-1.75E-06,-3.04E-07
-0.277,-1.28E-06,-1.76E-06,-3.04E-07
-0.278,-1.30E-06,-1.78E-06,-3.05E-07
-0.279,-1.31E-06,-1.78E-06,-3.05E-07
-0.28,-1.33E-06,-1.79E-06,-3.06E-07
-0.281,-1.34E-06,-1.79E-06,-3.06E-07
-0.282,-1.36E-06,-1.79E-06,-3.06E-07
-0.283,-1.38E-06,-1.79E-06,-3.06E-07
-0.284,-1.40E-06,-1.81E-06,-3.07E-07
-0.285,-1.41E-06,-1.81E-06,-3.07E-07
-0.286,-1.42E-06,-1.80E-06,-3.08E-07
-0.287,-1.43E-06,-1.80E-06,-3.08E-07
-0.288,-1.44E-06,-1.79E-06,-3.08E-07
-0.289,-1.46E-06,-1.79E-06,-3.08E-07
-0.29,-1.48E-06,-1.79E-06,-3.09E-07
-0.291,-1.48E-06,-1.77E-06,-3.09E-07
-0.292,-1.50E-06,-1.77E-06,-3.10E-07
-0.293,-1.50E-06,-1.76E-06,-3.11E-07
-0.294,-1.51E-06,-1.74E-06,-3.11E-07
-0.295,-1.52E-06,-1.73E-06,-3.11E-07
-0.296,-1.52E-06,-1.71E-06,-3.12E-07
-0.297,-1.53E-06,-1.71E-06,-3.12E-07
-0.298,-1.52E-06,-1.69E-06,-3.12E-07
-0.299,-1.54E-06,-1.67E-06,-3.12E-07
-0.3,-1.54E-06,-1.65E-06,-3.13E-07
-0.301,-1.54E-06,-1.63E-06,-3.13E-07
-0.302,-1.53E-06,-1.61E-06,-3.13E-07
-0.303,-1.53E-06,-1.59E-06,-3.14E-07
-0.304,-1.55E-06,-1.57E-06,-3.14E-07
-0.305,-1.53E-06,-1.55E-06,-3.14E-07
-0.306,-1.52E-06,-1.53E-06,-3.15E-07
-0.307,-1.51E-06,-1.50E-06,-3.15E-07
-0.308,-1.51E-06,-1.47E-06,-3.15E-07
-0.309,-1.50E-06,-1.45E-06,-3.16E-07
-0.31,-1.49E-06,-1.43E-06,-3.16E-07
-0.311,-1.49E-06,-1.40E-06,-3.16E-07
-0.312,-1.47E-06,-1.38E-06,-3.17E-07
-0.313,-1.46E-06,-1.35E-06,-3.17E-07
-0.314,-1.45E-06,-1.32E-06,-3.18E-07
-0.315,-1.44E-06,-1.30E-06,-3.18E-07
-0.316,-1.42E-06,-1.27E-06,-3.18E-07
-0.317,-1.40E-06,-1.25E-06,-3.19E-07
-0.318,-1.38E-06,-1.23E-06,-3.20E-07
-0.319,-1.37E-06,-1.20E-06,-3.20E-07
-0.32,-1.36E-06,-1.17E-06,-3.20E-07
-0.321,-1.35E-06,-1.15E-06,-3.21E-07
-0.322,-1.33E-06,-1.13E-06,-3.21E-07
-0.323,-1.31E-06,-1.11E-06,-3.22E-07
-0.324,-1.30E-06,-1.09E-06,-3.23E-07
-0.325,-1.27E-06,-1.06E-06,-3.24E-07
-0.326,-1.25E-06,-1.05E-06,-3.24E-07
-0.327,-1.24E-06,-1.02E-06,-3.24E-07
-0.328,-1.22E-06,-1.01E-06,-3.25E-07
-0.329,-1.20E-06,-9.84E-07,-3.26E-07
-0.33,-1.18E-06,-9.54E-07,-3.27E-07
-0.331,-1.16E-06,-9.38E-07,-3.28E-07
-0.332,-1.14E-06,-9.19E-07,-3.28E-07
-0.333,-1.13E-06,-9.05E-07,-3.29E-07
-0.334,-1.12E-06,-8.88E-07,-3.30E-07
-0.335,-1.10E-06,-8.70E-07,-3.31E-07
-0.336,-1.08E-06,-8.44E-07,-3.32E-07
-0.337,-1.06E-06,-8.48E-07,-3.33E-07
-0.338,-1.05E-06,-8.26E-07,-3.34E-07
-0.339,-1.03E-06,-8.17E-07,-3.35E-07
-0.34,-1.02E-06,-7.93E-07,-3.37E-07
-0.341,-9.98E-07,-7.76E-07,-3.38E-07
-0.342,-9.77E-07,-7.77E-07,-3.39E-07
-0.343,-9.70E-07,-7.52E-07,-3.40E-07
-0.344,-9.48E-07,-7.44E-07,-3.41E-07
-0.345,-9.41E-07,-7.32E-07,-3.43E-07
-0.346,-9.21E-07,-7.22E-07,-3.44E-07
-0.347,-9.08E-07,-7.26E-07,-3.45E-07
-0.348,-8.98E-07,-7.01E-07,-3.46E-07
-0.349,-8.87E-07,-6.99E-07,-3.47E-07
-0.35,-8.78E-07,-6.86E-07,-3.48E-07
-0.351,-8.65E-07,-6.82E-07,-3.49E-07
-0.352,-8.45E-07,-6.69E-07,-3.50E-07
-0.353,-8.50E-07,-6.62E-07,-3.50E-07
-0.354,-8.37E-07,-6.49E-07,-3.51E-07
-0.355,-8.22E-07,-6.45E-07,-3.52E-07
-0.356,-8.04E-07,-6.37E-07,-3.53E-07
-0.357,-7.97E-07,-6.32E-07,-3.53E-07
-0.358,-7.89E-07,-6.31E-07,-3.53E-07
-0.359,-7.86E-07,-6.27E-07,-3.54E-07
-0.36,-7.70E-07,-6.14E-07,-3.54E-07
-0.361,-7.67E-07,-6.05E-07,-3.55E-07
-0.362,-7.48E-07,-5.90E-07,-3.55E-07
-0.363,-7.43E-07,-5.95E-07,-3.55E-07
-0.364,-7.42E-07,-5.90E-07,-3.55E-07
-0.365,-7.32E-07,-5.82E-07,-3.55E-07
-0.366,-7.17E-07,-5.81E-07,-3.55E-07
-0.367,-7.19E-07,-5.77E-07,-3.55E-07
-0.368,-7.15E-07,-5.79E-07,-3.55E-07
-0.369,-7.08E-07,-5.70E-07,-3.55E-07
-0.37,-6.97E-07,-5.58E-07,-3.55E-07
-0.371,-6.89E-07,-5.65E-07,-3.55E-07
-0.372,-6.93E-07,-5.62E-07,-3.55E-07
-0.373,-6.93E-07,-5.73E-07,-3.55E-07
-0.374,-6.80E-07,-5.61E-07,-3.54E-07
-0.375,-6.78E-07,-5.58E-07,-3.54E-07
-0.376,-6.71E-07,-5.46E-07,-3.54E-07
-0.377,-6.59E-07,-5.49E-07,-3.54E-07
-0.378,-6.65E-07,-5.41E-07,-3.54E-07
-0.379,-6.50E-07,-5.37E-07,-3.54E-07
-0.38,-6.52E-07,-5.41E-07,-3.53E-07
-0.381,-6.53E-07,-5.39E-07,-3.54E-07
-0.382,-6.45E-07,-5.26E-07,-3.54E-07
-0.383,-6.49E-07,-5.30E-07,-3.54E-07
-0.384,-6.41E-07,-5.34E-07,-3.53E-07
-0.385,-6.35E-07,-5.24E-07,-3.54E-07
-0.386,-6.46E-07,-5.26E-07,-3.54E-07
-0.387,-6.28E-07,-5.28E-07,-3.54E-07
-0.388,-6.34E-07,-5.20E-07,-3.54E-07
-0.389,-6.36E-07,-5.24E-07,-3.54E-07
-0.39,-6.29E-07,-5.21E-07,-3.55E-07
-0.391,-6.15E-07,-5.13E-07,-3.54E-07
-0.392,-6.16E-07,-5.24E-07,-3.54E-07
-0.393,-6.12E-07,-5.23E-07,-3.54E-07
-0.394,-6.19E-07,-5.11E-07,-3.54E-07
-0.395,-6.08E-07,-5.22E-07,-3.54E-07
-0.396,-6.21E-07,-5.09E-07,-3.53E-07
-0.397,-6.12E-07,-5.20E-07,-3.53E-07
-0.398,-6.18E-07,-5.11E-07,-3.53E-07
-0.399,-6.19E-07,-5.16E-07,-3.52E-07
-0.4,-6.06E-07,-5.13E-07,-3.52E-07
-0.401,-5.99E-07,-5.12E-07,-3.52E-07
-0.402,-6.07E-07,-5.11E-07,-3.52E-07
-0.403,-6.05E-07,-5.07E-07,-3.51E-07
-0.404,-6.08E-07,-5.07E-07,-3.51E-07
-0.405,-6.10E-07,-5.10E-07,-3.51E-07
-0.406,-5.93E-07,-5.03E-07,-3.50E-07
-0.407,-6.02E-07,-5.06E-07,-3.50E-07
-0.408,-5.95E-07,-5.13E-07,-3.50E-07
-0.409,-6.00E-07,-5.03E-07,-3.49E-07
-0.41,-5.96E-07,-5.16E-07,-3.49E-07
-0.411,-5.94E-07,-5.09E-07,-3.48E-07
-0.412,-5.93E-07,-5.07E-07,-3.48E-07
-0.413,-5.89E-07,-5.16E-07,-3.47E-07
-0.414,-5.96E-07,-5.03E-07,-3.47E-07
-0.415,-5.93E-07,-5.13E-07,-3.46E-07
-0.416,-5.89E-07,-5.09E-07,-3.46E-07
-0.417,-5.91E-07,-5.03E-07,-3.46E-07
-0.418,-5.85E-07,-4.99E-07,-3.45E-07
-0.419,-5.99E-07,-5.04E-07,-3.45E-07
-0.42,-5.93E-07,-4.98E-07,-3.44E-07
-0.421,-5.86E-07,-4.97E-07,-3.44E-07
-0.422,-5.92E-07,-5.05E-07,-3.43E-07
-0.423,-5.92E-07,-5.05E-07,-3.43E-07
-0.424,-5.91E-07,-5.03E-07,-3.42E-07
-0.425,-5.97E-07,-5.04E-07,-3.41E-07
-0.426,-5.88E-07,-5.05E-07,-3.41E-07
-0.427,-5.84E-07,-4.92E-07,-3.40E-07
-0.428,-5.87E-07,-4.99E-07,-3.39E-07
-0.429,-5.88E-07,-5.07E-07,-3.39E-07
-0.43,-5.81E-07,-4.98E-07,-3.38E-07
-0.431,-5.88E-07,-5.06E-07,-3.38E-07
-0.432,-5.93E-07,-5.09E-07,-3.37E-07
-0.433,-5.94E-07,-5.00E-07,-3.37E-07
-0.434,-5.87E-07,-4.99E-07,-3.36E-07
-0.435,-5.85E-07,-5.04E-07,-3.36E-07
-0.436,-5.88E-07,-5.13E-07,-3.35E-07
-0.437,-5.85E-07,-5.01E-07,-3.34E-07
-0.438,-5.93E-07,-4.95E-07,-3.34E-07
-0.439,-5.85E-07,-5.06E-07,-3.33E-07
-0.44,-5.90E-07,-5.04E-07,-3.33E-07
-0.441,-5.90E-07,-4.99E-07,-3.32E-07
-0.442,-5.80E-07,-5.03E-07,-3.32E-07
-0.443,-5.87E-07,-4.96E-07,-3.31E-07
-0.444,-5.92E-07,-5.10E-07,-3.30E-07
-0.445,-5.94E-07,-5.04E-07,-3.30E-07
-0.446,-5.87E-07,-4.95E-07,-3.29E-07
-0.447,-5.90E-07,-5.11E-07,-3.29E-07
-0.448,-5.93E-07,-5.09E-07,-3.29E-07
-0.449,-5.91E-07,-5.06E-07,-3.28E-07
-0.45,-5.91E-07,-5.03E-07,-3.27E-07
-0.451,-5.91E-07,-5.04E-07,-3.27E-07
-0.452,-5.95E-07,-5.08E-07,-3.26E-07
-0.453,-5.90E-07,-5.00E-07,-3.26E-07
-0.454,-5.98E-07,-5.10E-07,-3.26E-07
-0.455,-5.85E-07,-5.06E-07,-3.25E-07
-0.456,-5.97E-07,-5.05E-07,-3.25E-07
-0.457,-5.99E-07,-5.09E-07,-3.24E-07
-0.458,-5.94E-07,-5.09E-07,-3.24E-07
-0.459,-5.98E-07,-5.09E-07,-3.24E-07
-0.46,-5.88E-07,-5.06E-07,-3.23E-07
-0.461,-5.96E-07,-5.06E-07,-3.23E-07
-0.462,-5.93E-07,-5.06E-07,-3.22E-07
-0.463,-5.99E-07,-5.09E-07,-3.22E-07
-0.464,-5.97E-07,-5.09E-07,-3.21E-07
-0.465,-5.99E-07,-5.15E-07,-3.21E-07
-0.466,-6.04E-07,-5.07E-07,-3.20E-07
-0.467,-6.08E-07,-5.14E-07,-3.20E-07
-0.468,-6.01E-07,-5.07E-07,-3.19E-07
-0.469,-6.00E-07,-5.08E-07,-3.19E-07
-0.47,-5.96E-07,-5.10E-07,-3.18E-07
-0.471,-6.06E-07,-5.10E-07,-3.18E-07
-0.472,-5.93E-07,-5.21E-07,-3.17E-07
-0.473,-6.03E-07,-5.14E-07,-3.17E-07
-0.474,-6.09E-07,-5.12E-07,-3.16E-07
-0.475,-6.08E-07,-5.11E-07,-3.16E-07
-0.476,-6.04E-07,-5.07E-07,-3.15E-07
-0.477,-5.95E-07,-5.16E-07,-3.15E-07
-0.478,-6.15E-07,-5.14E-07,-3.14E-07
-0.479,-6.12E-07,-5.19E-07,-3.13E-07
-0.48,-6.07E-07,-5.16E-07,-3.13E-07
-0.481,-5.97E-07,-5.06E-07,-3.13E-07
-0.482,-6.04E-07,-5.17E-07,-3.12E-07
-0.483,-6.04E-07,-5.06E-07,-3.12E-07
-0.484,-6.18E-07,-5.16E-07,-3.11E-07
-0.485,-6.06E-07,-5.24E-07,-3.11E-07
-0.486,-6.06E-07,-5.17E-07,-3.11E-07
-0.487,-6.14E-07,-5.15E-07,-3.11E-07
-0.488,-6.09E-07,-5.13E-07,-3.10E-07
-0.489,-6.07E-07,-5.18E-07,-3.10E-07
-0.49,-6.09E-07,-5.24E-07,-3.10E-07
-0.491,-6.12E-07,-5.18E-07,-3.09E-07
-0.492,-6.15E-07,-5.15E-07,-3.09E-07
-0.493,-6.17E-07,-5.24E-07,-3.09E-07
-0.494,-6.17E-07,-5.25E-07,-3.09E-07
-0.495,-6.14E-07,-5.26E-07,-3.09E-07
-0.496,-6.11E-07,-5.26E-07,-3.09E-07
-0.497,-6.19E-07,-5.33E-07,-3.08E-07
-0.498,-6.21E-07,-5.20E-07,-3.08E-07
-0.499,-6.12E-07,-5.23E-07,-3.08E-07
-0.5,-6.20E-07,-5.31E-07,-3.08E-07
-0.501,-6.11E-07,-5.25E-07,-3.07E-07
-0.502,-6.27E-07,-5.27E-07,-3.07E-07
-0.503,-6.24E-07,-5.39E-07,-3.06E-07
-0.504,-6.26E-07,-5.23E-07,-3.06E-07
-0.505,-6.25E-07,-5.31E-07,-3.06E-07
-0.506,-6.25E-07,-5.31E-07,-3.05E-07
-0.507,-6.26E-07,-5.36E-07,-3.05E-07
-0.508,-6.19E-07,-5.24E-07,-3.05E-07
-0.509,-6.32E-07,-5.35E-07,-3.05E-07
-0.51,-6.31E-07,-5.23E-07,-3.04E-07
-0.511,-6.22E-07,-5.31E-07,-3.04E-07
-0.512,-6.28E-07,-5.46E-07,-3.04E-07
-0.513,-6.34E-07,-5.44E-07,-3.03E-07
-0.514,-6.39E-07,-5.37E-07,-3.03E-07
-0.515,-6.30E-07,-5.41E-07,-3.03E-07
-0.516,-6.31E-07,-5.33E-07,-3.03E-07
-0.517,-6.33E-07,-5.46E-07,-3.02E-07
-0.518,-6.36E-07,-5.43E-07,-3.02E-07
-0.519,-6.36E-07,-5.44E-07,-3.02E-07
-0.52,-6.42E-07,-5.36E-07,-3.02E-07
-0.521,-6.36E-07,-5.43E-07,-3.01E-07
-0.522,-6.51E-07,-5.43E-07,-3.01E-07
-0.523,-6.39E-07,-5.49E-07,-3.00E-07
-0.524,-6.44E-07,-5.48E-07,-3.00E-07
-0.525,-6.44E-07,-5.42E-07,-2.99E-07
-0.526,-6.45E-07,-5.48E-07,-2.98E-07
-0.527,-6.46E-07,-5.43E-07,-2.98E-07
-0.528,-6.45E-07,-5.51E-07,-2.97E-07
-0.529,-6.39E-07,-5.43E-07,-2.97E-07
-0.53,-6.46E-07,-5.46E-07,-2.96E-07
-0.531,-6.37E-07,-5.57E-07,-2.96E-07
-0.532,-6.57E-07,-5.62E-07,-2.96E-07
-0.533,-6.60E-07,-5.57E-07,-2.96E-07
-0.534,-6.55E-07,-5.55E-07,-2.95E-07
-0.535,-6.60E-07,-5.56E-07,-2.94E-07
-0.536,-6.53E-07,-5.60E-07,-2.93E-07
-0.537,-6.61E-07,-5.48E-07,-2.93E-07
-0.538,-6.56E-07,-5.59E-07,-2.92E-07
-0.539,-6.54E-07,-5.66E-07,-2.92E-07
-0.54,-6.68E-07,-5.67E-07,-2.92E-07
-0.541,-6.58E-07,-5.65E-07,-2.91E-07
-0.542,-6.61E-07,-5.68E-07,-2.90E-07
-0.543,-6.62E-07,-5.59E-07,-2.90E-07
-0.544,-6.66E-07,-5.70E-07,-2.89E-07
-0.545,-6.76E-07,-5.61E-07,-2.89E-07
-0.546,-6.70E-07,-5.73E-07,-2.88E-07
-0.547,-6.67E-07,-5.64E-07,-2.88E-07
-0.548,-6.69E-07,-5.71E-07,-2.87E-07
-0.549,-6.83E-07,-5.72E-07,-2.87E-07
-0.55,-6.82E-07,-5.75E-07,-2.87E-07
-0.551,-6.77E-07,-5.70E-07,-2.86E-07
-0.552,-6.68E-07,-5.62E-07,-2.86E-07
-0.553,-6.89E-07,-5.73E-07,-2.85E-07
-0.554,-6.94E-07,-5.69E-07,-2.85E-07
-0.555,-6.73E-07,-5.78E-07,-2.85E-07
-0.556,-6.84E-07,-5.77E-07,-2.84E-07
-0.557,-6.82E-07,-5.75E-07,-2.83E-07
-0.558,-6.79E-07,-5.77E-07,-2.83E-07
-0.559,-6.79E-07,-5.77E-07,-2.83E-07
-0.56,-6.90E-07,-5.84E-07,-2.83E-07
-0.561,-6.95E-07,-5.91E-07,-2.82E-07
-0.562,-6.87E-07,-5.82E-07,-2.82E-07
-0.563,-6.93E-07,-5.84E-07,-2.81E-07
-0.564,-6.94E-07,-5.83E-07,-2.81E-07
-0.565,-6.97E-07,-6.05E-07,-2.81E-07
-0.566,-6.95E-07,-5.94E-07,-2.80E-07
-0.567,-6.91E-07,-5.88E-07,-2.80E-07
-0.568,-6.98E-07,-5.92E-07,-2.79E-07
-0.569,-7.05E-07,-5.88E-07,-2.78E-07
-0.57,-7.08E-07,-5.94E-07,-2.78E-07
-0.571,-6.98E-07,-5.91E-07,-2.77E-07
-0.572,-6.96E-07,-5.97E-07,-2.77E-07
-0.573,-7.10E-07,-6.05E-07,-2.76E-07
-0.574,-7.08E-07,-5.99E-07,-2.76E-07
-0.575,-7.06E-07,-5.97E-07,-2.75E-07
-0.576,-7.06E-07,-5.99E-07,-2.75E-07
-0.577,-7.11E-07,-6.18E-07,-2.75E-07
-0.578,-7.16E-07,-6.16E-07,-2.75E-07
-0.579,-7.18E-07,-5.98E-07,-2.75E-07
-0.58,-7.18E-07,-6.08E-07,-2.73E-07
-0.581,-7.23E-07,-6.14E-07,-2.73E-07
-0.582,-7.23E-07,-6.14E-07,-2.73E-07
-0.583,-7.36E-07,-6.22E-07,-2.73E-07
-0.584,-7.34E-07,-6.18E-07,-2.73E-07
-0.585,-7.37E-07,-6.21E-07,-2.73E-07
-0.586,-7.39E-07,-6.27E-07,-2.73E-07
-0.587,-7.37E-07,-6.25E-07,-2.72E-07
-0.588,-7.41E-07,-6.26E-07,-2.72E-07
-0.589,-7.46E-07,-6.25E-07,-2.72E-07
-0.59,-7.45E-07,-6.31E-07,-2.72E-07
-0.591,-7.48E-07,-6.30E-07,-2.72E-07
-0.592,-7.48E-07,-6.31E-07,-2.72E-07
-0.593,-7.46E-07,-6.40E-07,-2.72E-07
-0.594,-7.58E-07,-6.33E-07,-2.72E-07
-0.595,-7.40E-07,-6.35E-07,-2.73E-07
-0.596,-7.49E-07,-6.28E-07,-2.73E-07
-0.597,-7.54E-07,-6.40E-07,-2.72E-07
-0.598,-7.63E-07,-6.38E-07,-2.72E-07
-0.599,-7.61E-07,-6.47E-07,-2.72E-07
-0.6,-7.60E-07,-6.55E-07,-2.72E-07
-0.601,-7.67E-07,-6.47E-07,-2.71E-07
-0.602,-7.70E-07,-6.47E-07,-2.71E-07
-0.603,-7.74E-07,-6.55E-07,-2.71E-07
-0.604,-7.68E-07,-6.60E-07,-2.70E-07
-0.605,-7.81E-07,-6.61E-07,-2.70E-07
-0.606,-7.78E-07,-6.60E-07,-2.69E-07
-0.607,-7.77E-07,-6.61E-07,-2.69E-07
-0.608,-7.79E-07,-6.65E-07,-2.69E-07
-0.609,-7.80E-07,-6.72E-07,-2.69E-07
-0.61,-7.84E-07,-6.72E-07,-2.68E-07
-0.611,-7.83E-07,-6.70E-07,-2.68E-07
-0.612,-7.90E-07,-6.70E-07,-2.68E-07
-0.613,-7.95E-07,-6.74E-07,-2.67E-07
-0.614,-8.05E-07,-6.77E-07,-2.67E-07
-0.615,-8.02E-07,-6.87E-07,-2.67E-07
-0.616,-8.00E-07,-6.88E-07,-2.66E-07
-0.617,-7.96E-07,-6.88E-07,-2.66E-07
-0.618,-8.08E-07,-6.86E-07,-2.66E-07
-0.619,-8.09E-07,-7.06E-07,-2.66E-07
-0.62,-8.14E-07,-7.05E-07,-2.65E-07
-0.621,-8.22E-07,-6.93E-07,-2.65E-07
-0.622,-8.14E-07,-7.04E-07,-2.65E-07
-0.623,-8.18E-07,-7.12E-07,-2.65E-07
-0.624,-8.24E-07,-7.05E-07,-2.65E-07
-0.625,-8.29E-07,-7.13E-07,-2.65E-07
-0.626,-8.30E-07,-7.17E-07,-2.64E-07
-0.627,-8.26E-07,-7.19E-07,-2.64E-07
-0.628,-8.42E-07,-7.15E-07,-2.63E-07
-0.629,-8.41E-07,-7.27E-07,-2.64E-07
-0.63,-8.41E-07,-7.30E-07,-2.64E-07
-0.631,-8.50E-07,-7.34E-07,-2.64E-07
-0.632,-8.45E-07,-7.42E-07,-2.64E-07
-0.633,-8.61E-07,-7.36E-07,-2.64E-07
-0.634,-8.57E-07,-7.41E-07,-2.64E-07
-0.635,-8.62E-07,-7.53E-07,-2.64E-07
-0.636,-8.59E-07,-7.44E-07,-2.64E-07
-0.637,-8.60E-07,-7.49E-07,-2.64E-07
-0.638,-8.67E-07,-7.48E-07,-2.64E-07
-0.639,-8.74E-07,-7.52E-07,-2.64E-07
-0.64,-8.79E-07,-7.62E-07,-2.64E-07
-0.641,-8.84E-07,-7.60E-07,-2.63E-07
-0.642,-8.85E-07,-7.62E-07,-2.63E-07
-0.643,-8.89E-07,-7.70E-07,-2.63E-07
-0.644,-9.00E-07,-7.78E-07,-2.63E-07
-0.645,-8.97E-07,-7.89E-07,-2.63E-07
-0.646,-8.94E-07,-7.89E-07,-2.63E-07
-0.647,-9.10E-07,-7.85E-07,-2.62E-07
-0.648,-9.07E-07,-7.83E-07,-2.62E-07
-0.649,-9.21E-07,-8.06E-07,-2.62E-07
-0.65,-9.14E-07,-8.07E-07,-2.62E-07
-0.651,-9.18E-07,-7.96E-07,-2.61E-07
-0.652,-9.30E-07,-8.11E-07,-2.61E-07
-0.653,-9.41E-07,-8.10E-07,-2.61E-07
-0.654,-9.40E-07,-8.11E-07,-2.61E-07
-0.655,-9.36E-07,-8.26E-07,-2.61E-07
-0.656,-9.43E-07,-8.20E-07,-2.60E-07
-0.657,-9.46E-07,-8.30E-07,-2.60E-07
-0.658,-9.51E-07,-8.36E-07,-2.60E-07
-0.659,-9.62E-07,-8.44E-07,-2.60E-07
-0.66,-9.70E-07,-8.51E-07,-2.60E-07
-0.661,-9.70E-07,-8.44E-07,-2.60E-07
-0.662,-9.73E-07,-8.58E-07,-2.60E-07
-0.663,-9.82E-07,-8.62E-07,-2.61E-07
-0.664,-9.88E-07,-8.71E-07,-2.61E-07
-0.665,-9.83E-07,-8.79E-07,-2.61E-07
-0.666,-9.90E-07,-8.84E-07,-2.61E-07
-0.667,-9.99E-07,-8.82E-07,-2.61E-07
-0.668,-1.01E-06,-8.91E-07,-2.61E-07
-0.669,-1.01E-06,-9.06E-07,-2.61E-07
-0.67,-1.02E-06,-9.10E-07,-2.62E-07
-0.671,-1.03E-06,-9.18E-07,-2.62E-07
-0.672,-1.03E-06,-9.14E-07,-2.61E-07
-0.673,-1.04E-06,-9.25E-07,-2.62E-07
-0.674,-1.05E-06,-9.30E-07,-2.62E-07
-0.675,-1.05E-06,-9.37E-07,-2.62E-07
-0.676,-1.05E-06,-9.34E-07,-2.62E-07
-0.677,-1.07E-06,-9.56E-07,-2.62E-07
-0.678,-1.08E-06,-9.44E-07,-2.62E-07
-0.679,-1.07E-06,-9.61E-07,-2.62E-07
-0.68,-1.09E-06,-9.76E-07,-2.62E-07
-0.681,-1.10E-06,-9.78E-07,-2.62E-07
-0.682,-1.10E-06,-9.94E-07,-2.62E-07
-0.683,-1.12E-06,-9.95E-07,-2.62E-07
-0.684,-1.11E-06,-1.00E-06,-2.62E-07
-0.685,-1.13E-06,-1.03E-06,-2.61E-07
-0.686,-1.13E-06,-1.02E-06,-2.61E-07
-0.687,-1.14E-06,-1.03E-06,-2.61E-07
-0.688,-1.15E-06,-1.04E-06,-2.61E-07
-0.689,-1.15E-06,-1.04E-06,-2.61E-07
-0.69,-1.16E-06,-1.06E-06,-2.61E-07
-0.691,-1.17E-06,-1.06E-06,-2.61E-07
-0.692,-1.18E-06,-1.08E-06,-2.61E-07
-0.693,-1.20E-06,-1.08E-06,-2.61E-07
-0.694,-1.21E-06,-1.10E-06,-2.61E-07
-0.695,-1.22E-06,-1.11E-06,-2.61E-07
-0.696,-1.23E-06,-1.12E-06,-2.61E-07
-0.697,-1.25E-06,-1.12E-06,-2.60E-07
-0.698,-1.25E-06,-1.14E-06,-2.60E-07
-0.699,-1.26E-06,-1.14E-06,-2.60E-07
