Nov. 2, 2022   13:10:44
Square Wave Voltammetry
File: c:\users\fatemeh\onedrive - university of waterloo\ideation lab\experiments\antibiotic detection\vancomycin sensing (mahmoud's project)\vancomycin animal experiments\nov2.22\e#2, w new mn\in buffer\80um, m1.txt
Data Source:  Experiment
Instrument Model:  CHI1040C
Header: 
Note: 

Init E (V) = 0.2
Final E (V) = -0.7
Incr E (V) = 0.001
Amplitude (V) = 0.025
Frequency (Hz) = 100
Quiet Time (sec) = 20
Sensitivity (A/V) = 1e-4

E3 Scan On
Sens 3 = 1e-006

Results:

Channel 1:
Difference:

Forward:

Reverse:

Channel 3:
Difference:
Ep = -0.285V
ip = -1.294e-6A
Ap = -1.001e-7VA

Forward:

Reverse:

Potential/V, i1d/A, i1f/A, i1r/A, i3d/A, i3f/A, i3r/A

0.199, -9.772e-10, -2.912e-8, -2.814e-8, -4.706e-7, -1.703e-7, 3.002e-7
0.198, -1.466e-9, -3.010e-8, -2.863e-8, -5.749e-7, -3.013e-7, 2.736e-7
0.197, 2.199e-9, -2.790e-8, -3.010e-8, -5.881e-7, -3.174e-7, 2.707e-7
0.196, 2.687e-9, -2.741e-8, -3.010e-8, -5.805e-7, -3.177e-7, 2.629e-7
0.195, -7.573e-9, -3.621e-8, -2.863e-8, -5.722e-7, -3.162e-7, 2.560e-7
0.194, -1.466e-9, -3.010e-8, -2.863e-8, -5.722e-7, -3.184e-7, 2.538e-7
0.193, -3.909e-9, -3.059e-8, -2.668e-8, -5.788e-7, -3.231e-7, 2.558e-7
0.192, 4.153e-9, -2.814e-8, -3.230e-8, -5.710e-7, -3.206e-7, 2.504e-7
0.191, -3.176e-9, -2.937e-8, -2.619e-8, -5.805e-7, -3.284e-7, 2.521e-7
0.190, 3.909e-9, -2.668e-8, -3.059e-8, -5.764e-7, -3.245e-7, 2.519e-7
0.189, -3.665e-9, -3.352e-8, -2.985e-8, -5.652e-7, -3.213e-7, 2.438e-7
0.188, -2.932e-9, -3.181e-8, -2.888e-8, -5.752e-7, -3.245e-7, 2.506e-7
0.187, 7.329e-10, -2.546e-8, -2.619e-8, -5.742e-7, -3.279e-7, 2.462e-7
0.186, -6.840e-9, -3.059e-8, -2.375e-8, -5.722e-7, -3.257e-7, 2.465e-7
0.185, 1.222e-9, -2.692e-8, -2.814e-8, -5.634e-7, -3.226e-7, 2.409e-7
0.184, 2.443e-10, -2.741e-8, -2.766e-8, -5.666e-7, -3.255e-7, 2.411e-7
0.183, 9.772e-10, -2.521e-8, -2.619e-8, -5.649e-7, -3.270e-7, 2.379e-7
0.182, 9.772e-10, -2.668e-8, -2.766e-8, -5.727e-7, -3.299e-7, 2.428e-7
0.181, -5.375e-9, -3.303e-8, -2.766e-8, -5.608e-7, -3.231e-7, 2.377e-7
0.180, 2.443e-9, -2.937e-8, -3.181e-8, -5.588e-7, -3.238e-7, 2.350e-7
0.179, -1.466e-9, -2.839e-8, -2.692e-8, -5.539e-7, -3.240e-7, 2.299e-7
0.178, -4.886e-10, -3.279e-8, -3.230e-8, -5.493e-7, -3.226e-7, 2.267e-7
0.177, 1.710e-9, -2.839e-8, -3.010e-8, -5.534e-7, -3.223e-7, 2.311e-7
0.176, 3.909e-9, -2.497e-8, -2.888e-8, -5.586e-7, -3.248e-7, 2.338e-7
0.175, 2.443e-9, -2.521e-8, -2.766e-8, -5.605e-7, -3.260e-7, 2.345e-7
0.174, 2.443e-10, -2.814e-8, -2.839e-8, -5.520e-7, -3.213e-7, 2.306e-7
0.173, 1.466e-9, -2.692e-8, -2.839e-8, -5.454e-7, -3.201e-7, 2.252e-7
0.172, 9.772e-10, -2.863e-8, -2.961e-8, -5.449e-7, -3.213e-7, 2.235e-7
0.171, 5.130e-9, -2.521e-8, -3.034e-8, -5.505e-7, -3.194e-7, 2.311e-7
0.170, -2.199e-9, -3.279e-8, -3.059e-8, -5.429e-7, -3.223e-7, 2.206e-7
0.169, -1.466e-9, -3.156e-8, -3.010e-8, -5.412e-7, -3.240e-7, 2.172e-7
0.168, 1.221e-9, -3.181e-8, -3.303e-8, -5.461e-7, -3.226e-7, 2.235e-7
0.167, -2.199e-9, -3.205e-8, -2.985e-8, -5.427e-7, -3.172e-7, 2.255e-7
0.166, -7.329e-10, -3.205e-8, -3.132e-8, -5.488e-7, -3.248e-7, 2.240e-7
0.165, 1.710e-9, -2.839e-8, -3.010e-8, -5.546e-7, -3.297e-7, 2.250e-7
0.164, 2.443e-9, -2.888e-8, -3.132e-8, -5.522e-7, -3.287e-7, 2.235e-7
0.163, 2.687e-9, -2.912e-8, -3.181e-8, -5.498e-7, -3.282e-7, 2.216e-7
0.162, -2.687e-9, -3.181e-8, -2.912e-8, -5.410e-7, -3.218e-7, 2.191e-7
0.161, -4.397e-9, -3.034e-8, -2.595e-8, -5.353e-7, -3.177e-7, 2.177e-7
0.160, -1.466e-9, -3.108e-8, -2.961e-8, -5.385e-7, -3.206e-7, 2.179e-7
0.159, -2.932e-9, -3.352e-8, -3.059e-8, -5.275e-7, -3.165e-7, 2.111e-7
0.158, 9.772e-10, -2.912e-8, -3.010e-8, -5.331e-7, -3.213e-7, 2.118e-7
0.157, 3.420e-9, -2.668e-8, -3.010e-8, -5.319e-7, -3.240e-7, 2.079e-7
0.156, 4.886e-9, -2.741e-8, -3.230e-8, -5.319e-7, -3.182e-7, 2.137e-7
0.155, -7.573e-9, -3.303e-8, -2.546e-8, -5.434e-7, -3.245e-7, 2.189e-7
0.154, 4.886e-10, -2.741e-8, -2.790e-8, -5.388e-7, -3.267e-7, 2.120e-7
0.153, -2.443e-10, -3.376e-8, -3.352e-8, -5.322e-7, -3.209e-7, 2.113e-7
0.152, 3.909e-9, -2.839e-8, -3.230e-8, -5.400e-7, -3.248e-7, 2.152e-7
0.151, 7.085e-9, -2.668e-8, -3.376e-8, -5.356e-7, -3.255e-7, 2.101e-7
0.150, -1.710e-9, -2.839e-8, -2.668e-8, -5.322e-7, -3.231e-7, 2.091e-7
0.149, -2.443e-10, -2.985e-8, -2.961e-8, -5.229e-7, -3.145e-7, 2.084e-7
0.148, -2.687e-9, -3.108e-8, -2.839e-8, -5.400e-7, -3.257e-7, 2.142e-7
0.147, 3.176e-9, -2.888e-8, -3.205e-8, -5.297e-7, -3.201e-7, 2.096e-7
0.146, 0.000e+0, -2.985e-8, -2.985e-8, -5.290e-7, -3.182e-7, 2.108e-7
0.145, -1.710e-9, -3.010e-8, -2.839e-8, -5.339e-7, -3.240e-7, 2.098e-7
0.144, 7.329e-10, -3.156e-8, -3.230e-8, -5.309e-7, -3.238e-7, 2.072e-7
0.143, 2.443e-10, -2.985e-8, -3.010e-8, -5.297e-7, -3.240e-7, 2.057e-7
0.142, 9.772e-10, -3.108e-8, -3.205e-8, -5.327e-7, -3.206e-7, 2.120e-7
0.141, -2.687e-9, -2.937e-8, -2.668e-8, -5.336e-7, -3.267e-7, 2.069e-7
0.140, 0.000e+0, -2.741e-8, -2.741e-8, -5.268e-7, -3.196e-7, 2.072e-7
0.139, 0.000e+0, -2.937e-8, -2.937e-8, -5.270e-7, -3.189e-7, 2.081e-7
0.138, -3.176e-9, -3.327e-8, -3.010e-8, -5.300e-7, -3.253e-7, 2.047e-7
0.137, 3.909e-9, -2.570e-8, -2.961e-8, -5.305e-7, -3.221e-7, 2.084e-7
0.136, 1.466e-9, -2.814e-8, -2.961e-8, -5.275e-7, -3.257e-7, 2.018e-7
0.135, 5.375e-9, -2.912e-8, -3.450e-8, -5.305e-7, -3.243e-7, 2.062e-7
0.134, -3.420e-9, -2.766e-8, -2.424e-8, -5.202e-7, -3.174e-7, 2.028e-7
0.133, 2.687e-9, -2.766e-8, -3.034e-8, -5.204e-7, -3.201e-7, 2.003e-7
0.132, 2.687e-9, -2.424e-8, -2.692e-8, -5.292e-7, -3.228e-7, 2.064e-7
0.131, 2.687e-9, -2.619e-8, -2.888e-8, -5.212e-7, -3.209e-7, 2.003e-7
0.130, 6.596e-9, -2.790e-8, -3.450e-8, -5.314e-7, -3.243e-7, 2.072e-7
0.129, 4.397e-9, -2.814e-8, -3.254e-8, -5.217e-7, -3.243e-7, 1.974e-7
0.128, 3.420e-9, -2.643e-8, -2.985e-8, -5.160e-7, -3.155e-7, 2.006e-7
0.127, 7.573e-9, -2.424e-8, -3.181e-8, -5.195e-7, -3.211e-7, 1.984e-7
0.126, -5.863e-9, -3.523e-8, -2.937e-8, -5.195e-7, -3.172e-7, 2.023e-7
0.125, 3.665e-9, -2.863e-8, -3.230e-8, -5.148e-7, -3.177e-7, 1.971e-7
0.124, 7.085e-9, -2.448e-8, -3.156e-8, -5.182e-7, -3.199e-7, 1.984e-7
0.123, 1.954e-9, -2.912e-8, -3.108e-8, -5.175e-7, -3.157e-7, 2.018e-7
0.122, -1.222e-9, -2.863e-8, -2.741e-8, -5.229e-7, -3.172e-7, 2.057e-7
0.121, 9.772e-10, -2.668e-8, -2.766e-8, -5.153e-7, -3.201e-7, 1.952e-7
0.120, -8.062e-9, -3.352e-8, -2.546e-8, -5.268e-7, -3.216e-7, 2.052e-7
0.119, 7.329e-10, -3.108e-8, -3.181e-8, -5.131e-7, -3.157e-7, 1.974e-7
0.118, -1.710e-9, -3.230e-8, -3.059e-8, -5.165e-7, -3.204e-7, 1.962e-7
0.117, -2.443e-10, -2.912e-8, -2.888e-8, -5.212e-7, -3.231e-7, 1.981e-7
0.116, -4.886e-9, -3.108e-8, -2.619e-8, -5.226e-7, -3.240e-7, 1.986e-7
0.115, 7.329e-10, -2.961e-8, -3.034e-8, -5.168e-7, -3.189e-7, 1.979e-7
0.114, 2.443e-10, -2.985e-8, -3.010e-8, -5.112e-7, -3.189e-7, 1.922e-7
0.113, -1.466e-9, -3.156e-8, -3.010e-8, -5.236e-7, -3.250e-7, 1.986e-7
0.112, 0.000e+0, -2.961e-8, -2.961e-8, -5.173e-7, -3.196e-7, 1.976e-7
0.111, 2.687e-9, -2.839e-8, -3.108e-8, -5.082e-7, -3.150e-7, 1.932e-7
0.110, -2.932e-9, -3.156e-8, -2.863e-8, -5.226e-7, -3.245e-7, 1.981e-7
0.109, 1.954e-9, -3.083e-8, -3.279e-8, -4.984e-7, -3.086e-7, 1.898e-7
0.108, 1.221e-9, -2.912e-8, -3.034e-8, -5.109e-7, -3.150e-7, 1.959e-7
0.107, 5.130e-9, -2.619e-8, -3.132e-8, -5.165e-7, -3.174e-7, 1.991e-7
0.106, 3.909e-9, -2.301e-8, -2.692e-8, -5.165e-7, -3.187e-7, 1.979e-7
0.105, -2.932e-9, -2.912e-8, -2.619e-8, -5.131e-7, -3.206e-7, 1.925e-7
0.104, 3.665e-9, -2.717e-8, -3.083e-8, -5.099e-7, -3.182e-7, 1.918e-7
0.103, 2.443e-10, -2.937e-8, -2.961e-8, -5.090e-7, -3.204e-7, 1.886e-7
0.102, 3.420e-9, -2.668e-8, -3.010e-8, -5.072e-7, -3.182e-7, 1.891e-7
0.101, 7.329e-10, -2.692e-8, -2.766e-8, -5.041e-7, -3.174e-7, 1.866e-7
0.100, -2.199e-9, -3.010e-8, -2.790e-8, -5.070e-7, -3.189e-7, 1.881e-7
0.099, 3.665e-9, -2.668e-8, -3.034e-8, -5.068e-7, -3.167e-7, 1.900e-7
0.098, -7.329e-10, -2.668e-8, -2.595e-8, -5.024e-7, -3.172e-7, 1.852e-7
0.097, -5.375e-9, -3.376e-8, -2.839e-8, -5.104e-7, -3.192e-7, 1.913e-7
0.096, 1.710e-9, -2.863e-8, -3.034e-8, -5.112e-7, -3.194e-7, 1.918e-7
0.095, 1.710e-9, -3.034e-8, -3.205e-8, -5.021e-7, -3.162e-7, 1.859e-7
0.094, -1.710e-9, -3.059e-8, -2.888e-8, -4.909e-7, -3.104e-7, 1.805e-7
0.093, -3.420e-9, -3.059e-8, -2.717e-8, -5.050e-7, -3.199e-7, 1.852e-7
0.092, -2.443e-10, -2.937e-8, -2.912e-8, -5.009e-7, -3.121e-7, 1.888e-7
0.091, -2.443e-9, -2.888e-8, -2.643e-8, -5.090e-7, -3.182e-7, 1.908e-7
0.090, -2.443e-10, -2.692e-8, -2.668e-8, -5.041e-7, -3.155e-7, 1.886e-7
0.089, -1.466e-9, -2.790e-8, -2.643e-8, -4.997e-7, -3.150e-7, 1.847e-7
0.088, 4.886e-10, -2.668e-8, -2.717e-8, -5.063e-7, -3.211e-7, 1.852e-7
0.087, 4.886e-10, -3.156e-8, -3.205e-8, -5.060e-7, -3.160e-7, 1.900e-7
0.086, 3.420e-9, -2.888e-8, -3.230e-8, -5.038e-7, -3.133e-7, 1.905e-7
0.085, 1.222e-9, -2.912e-8, -3.034e-8, -5.060e-7, -3.172e-7, 1.888e-7
0.084, 2.443e-10, -2.497e-8, -2.521e-8, -4.960e-7, -3.172e-7, 1.788e-7
0.083, -2.932e-9, -2.912e-8, -2.619e-8, -5.028e-7, -3.155e-7, 1.874e-7
0.082, -2.199e-9, -2.961e-8, -2.741e-8, -4.984e-7, -3.150e-7, 1.835e-7
0.081, 5.130e-9, -2.643e-8, -3.156e-8, -4.989e-7, -3.121e-7, 1.869e-7
0.080, -1.466e-9, -3.034e-8, -2.888e-8, -4.999e-7, -3.182e-7, 1.817e-7
0.079, -9.528e-9, -3.279e-8, -2.326e-8, -5.028e-7, -3.126e-7, 1.903e-7
0.078, -1.222e-9, -3.010e-8, -2.888e-8, -4.972e-7, -3.157e-7, 1.815e-7
0.077, 4.886e-10, -2.863e-8, -2.912e-8, -5.004e-7, -3.152e-7, 1.852e-7
0.076, 2.443e-10, -2.912e-8, -2.937e-8, -4.984e-7, -3.160e-7, 1.825e-7
0.075, 1.954e-9, -2.766e-8, -2.961e-8, -4.904e-7, -3.167e-7, 1.737e-7
0.074, 1.466e-9, -2.839e-8, -2.985e-8, -4.938e-7, -3.135e-7, 1.803e-7
0.073, 3.665e-9, -2.448e-8, -2.814e-8, -4.894e-7, -3.099e-7, 1.795e-7
0.072, 1.954e-9, -2.961e-8, -3.156e-8, -4.899e-7, -3.135e-7, 1.764e-7
0.071, 9.772e-10, -2.839e-8, -2.937e-8, -4.938e-7, -3.148e-7, 1.791e-7
0.070, 6.352e-9, -2.521e-8, -3.156e-8, -5.009e-7, -3.170e-7, 1.839e-7
0.069, 4.642e-9, -2.717e-8, -3.181e-8, -4.862e-7, -3.138e-7, 1.725e-7
0.068, -7.329e-10, -3.205e-8, -3.132e-8, -4.948e-7, -3.135e-7, 1.813e-7
0.067, 2.443e-9, -2.595e-8, -2.839e-8, -4.941e-7, -3.148e-7, 1.793e-7
0.066, -7.818e-9, -3.156e-8, -2.375e-8, -4.953e-7, -3.130e-7, 1.822e-7
0.065, -4.886e-9, -3.034e-8, -2.546e-8, -4.931e-7, -3.106e-7, 1.825e-7
0.064, 4.886e-10, -2.692e-8, -2.741e-8, -4.855e-7, -3.121e-7, 1.734e-7
0.063, -5.619e-9, -3.059e-8, -2.497e-8, -4.821e-7, -3.096e-7, 1.725e-7
0.062, 1.222e-9, -2.766e-8, -2.888e-8, -4.899e-7, -3.111e-7, 1.788e-7
0.061, -3.909e-9, -3.108e-8, -2.717e-8, -4.870e-7, -3.126e-7, 1.744e-7
0.060, 9.772e-10, -2.619e-8, -2.717e-8, -4.870e-7, -3.150e-7, 1.720e-7
0.059, 5.863e-9, -2.228e-8, -2.814e-8, -4.919e-7, -3.104e-7, 1.815e-7
0.058, 1.466e-9, -2.717e-8, -2.863e-8, -4.950e-7, -3.179e-7, 1.771e-7
0.057, -4.886e-10, -2.961e-8, -2.912e-8, -4.887e-7, -3.116e-7, 1.771e-7
0.056, 4.886e-10, -2.985e-8, -3.034e-8, -4.875e-7, -3.101e-7, 1.773e-7
0.055, 1.222e-9, -2.863e-8, -2.985e-8, -4.850e-7, -3.130e-7, 1.720e-7
0.054, -3.909e-9, -2.961e-8, -2.570e-8, -4.818e-7, -3.096e-7, 1.722e-7
0.053, -2.932e-9, -2.888e-8, -2.595e-8, -4.855e-7, -3.138e-7, 1.717e-7
0.052, -3.176e-9, -3.034e-8, -2.717e-8, -4.831e-7, -3.096e-7, 1.734e-7
0.051, -4.886e-9, -3.059e-8, -2.570e-8, -4.760e-7, -3.064e-7, 1.695e-7
0.050, 1.954e-9, -3.034e-8, -3.230e-8, -4.855e-7, -3.118e-7, 1.737e-7
0.049, -1.954e-9, -2.863e-8, -2.668e-8, -4.787e-7, -3.011e-7, 1.776e-7
0.048, 1.222e-9, -2.863e-8, -2.985e-8, -4.911e-7, -3.108e-7, 1.803e-7
0.047, 4.886e-10, -2.937e-8, -2.985e-8, -4.889e-7, -3.140e-7, 1.749e-7
0.046, 0.000e+0, -2.741e-8, -2.741e-8, -4.747e-7, -3.052e-7, 1.695e-7
0.045, -1.466e-9, -3.132e-8, -2.985e-8, -4.828e-7, -3.118e-7, 1.710e-7
0.044, -9.772e-10, -3.059e-8, -2.961e-8, -4.711e-7, -3.038e-7, 1.673e-7
0.043, -2.932e-9, -3.181e-8, -2.888e-8, -4.855e-7, -3.104e-7, 1.751e-7
0.042, 2.443e-10, -2.692e-8, -2.717e-8, -4.860e-7, -3.096e-7, 1.764e-7
0.041, 3.909e-9, -2.546e-8, -2.937e-8, -4.677e-7, -3.055e-7, 1.622e-7
0.040, 7.085e-9, -2.301e-8, -3.010e-8, -4.789e-7, -3.077e-7, 1.712e-7
0.039, 6.108e-9, -2.497e-8, -3.108e-8, -4.794e-7, -3.060e-7, 1.734e-7
0.038, -3.909e-9, -3.108e-8, -2.717e-8, -4.796e-7, -3.101e-7, 1.695e-7
0.037, 4.397e-9, -2.424e-8, -2.863e-8, -4.835e-7, -3.111e-7, 1.725e-7
0.036, 5.130e-9, -2.448e-8, -2.961e-8, -4.794e-7, -3.096e-7, 1.698e-7
0.035, -1.466e-9, -3.059e-8, -2.912e-8, -4.801e-7, -3.082e-7, 1.720e-7
0.034, 1.954e-9, -2.790e-8, -2.985e-8, -4.682e-7, -3.011e-7, 1.671e-7
0.033, 3.176e-9, -2.668e-8, -2.985e-8, -4.679e-7, -3.003e-7, 1.676e-7
0.032, 2.443e-9, -2.814e-8, -3.059e-8, -4.835e-7, -3.155e-7, 1.681e-7
0.031, 7.085e-9, -2.399e-8, -3.108e-8, -4.767e-7, -3.096e-7, 1.671e-7
0.030, 2.443e-9, -2.668e-8, -2.912e-8, -4.806e-7, -3.101e-7, 1.705e-7
0.029, -4.153e-9, -2.888e-8, -2.472e-8, -4.828e-7, -3.084e-7, 1.744e-7
0.028, -1.710e-9, -3.083e-8, -2.912e-8, -4.738e-7, -3.025e-7, 1.712e-7
0.027, -5.375e-9, -2.961e-8, -2.424e-8, -4.826e-7, -3.096e-7, 1.729e-7
0.026, 1.954e-9, -2.888e-8, -3.083e-8, -4.713e-7, -3.045e-7, 1.668e-7
0.025, 2.443e-10, -2.790e-8, -2.814e-8, -4.794e-7, -3.104e-7, 1.690e-7
0.024, 5.619e-9, -2.570e-8, -3.132e-8, -4.784e-7, -3.094e-7, 1.690e-7
0.023, -2.443e-9, -3.083e-8, -2.839e-8, -4.735e-7, -3.050e-7, 1.685e-7
0.022, -2.932e-9, -2.985e-8, -2.692e-8, -4.652e-7, -3.033e-7, 1.620e-7
0.021, -4.642e-9, -3.327e-8, -2.863e-8, -4.752e-7, -3.067e-7, 1.685e-7
0.020, -2.443e-9, -3.034e-8, -2.790e-8, -4.743e-7, -3.091e-7, 1.651e-7
0.019, 1.954e-9, -2.668e-8, -2.863e-8, -4.694e-7, -3.077e-7, 1.617e-7
0.018, -3.420e-9, -3.205e-8, -2.863e-8, -4.728e-7, -3.042e-7, 1.685e-7
0.017, 2.932e-9, -2.497e-8, -2.790e-8, -4.703e-7, -3.057e-7, 1.646e-7
0.016, -7.085e-9, -3.108e-8, -2.399e-8, -4.733e-7, -3.055e-7, 1.678e-7
0.015, -4.397e-9, -3.230e-8, -2.790e-8, -4.660e-7, -3.013e-7, 1.646e-7
0.014, -2.443e-9, -3.352e-8, -3.108e-8, -4.721e-7, -3.079e-7, 1.641e-7
0.013, 1.954e-9, -3.010e-8, -3.205e-8, -4.694e-7, -3.042e-7, 1.651e-7
0.012, 2.687e-9, -3.059e-8, -3.327e-8, -4.594e-7, -2.962e-7, 1.632e-7
0.011, 2.443e-10, -3.108e-8, -3.132e-8, -4.686e-7, -3.077e-7, 1.610e-7
0.010, 1.466e-9, -2.814e-8, -2.961e-8, -4.694e-7, -3.028e-7, 1.666e-7
0.009, 2.443e-9, -2.814e-8, -3.059e-8, -4.674e-7, -3.062e-7, 1.612e-7
0.008, -9.772e-10, -3.205e-8, -3.108e-8, -4.686e-7, -3.025e-7, 1.661e-7
0.007, -2.687e-9, -2.863e-8, -2.595e-8, -4.625e-7, -3.047e-7, 1.578e-7
0.006, -4.397e-9, -3.230e-8, -2.790e-8, -4.657e-7, -3.030e-7, 1.627e-7
0.005, -1.222e-9, -2.912e-8, -2.790e-8, -4.608e-7, -2.994e-7, 1.615e-7
0.004, 4.886e-10, -2.790e-8, -2.839e-8, -4.630e-7, -2.998e-7, 1.632e-7
0.003, 2.687e-9, -2.863e-8, -3.132e-8, -4.635e-7, -3.030e-7, 1.605e-7
0.002, 9.772e-10, -2.668e-8, -2.766e-8, -4.674e-7, -3.030e-7, 1.644e-7
0.001, -1.222e-9, -2.766e-8, -2.643e-8, -4.694e-7, -3.099e-7, 1.595e-7
-0.000, -4.397e-9, -3.156e-8, -2.717e-8, -4.618e-7, -3.013e-7, 1.605e-7
-0.001, 2.443e-9, -2.912e-8, -3.156e-8, -4.633e-7, -3.003e-7, 1.629e-7
-0.002, -3.420e-9, -2.937e-8, -2.595e-8, -4.635e-7, -3.023e-7, 1.612e-7
-0.003, 2.443e-10, -2.863e-8, -2.888e-8, -4.581e-7, -2.991e-7, 1.590e-7
-0.004, 3.665e-9, -2.448e-8, -2.814e-8, -4.694e-7, -3.042e-7, 1.651e-7
-0.005, 1.222e-9, -2.863e-8, -2.985e-8, -4.623e-7, -3.008e-7, 1.615e-7
-0.006, 2.443e-10, -2.692e-8, -2.717e-8, -4.530e-7, -2.964e-7, 1.566e-7
-0.007, 9.772e-10, -2.961e-8, -3.059e-8, -4.594e-7, -2.996e-7, 1.598e-7
-0.008, -6.352e-9, -3.132e-8, -2.497e-8, -4.689e-7, -3.082e-7, 1.607e-7
-0.009, -1.954e-9, -2.814e-8, -2.619e-8, -4.638e-7, -3.030e-7, 1.607e-7
-0.010, 1.710e-9, -2.692e-8, -2.863e-8, -4.618e-7, -3.055e-7, 1.563e-7
-0.011, -1.710e-9, -2.790e-8, -2.619e-8, -4.606e-7, -2.996e-7, 1.610e-7
-0.012, 4.397e-9, -2.717e-8, -3.156e-8, -4.598e-7, -3.035e-7, 1.563e-7
-0.013, 7.573e-9, -2.448e-8, -3.205e-8, -4.623e-7, -2.979e-7, 1.644e-7
-0.014, 1.710e-9, -2.570e-8, -2.741e-8, -4.677e-7, -3.057e-7, 1.620e-7
-0.015, 4.886e-10, -2.985e-8, -3.034e-8, -4.513e-7, -2.964e-7, 1.549e-7
-0.016, -2.443e-9, -2.863e-8, -2.619e-8, -4.645e-7, -3.003e-7, 1.641e-7
-0.017, 4.886e-9, -2.668e-8, -3.156e-8, -4.513e-7, -2.940e-7, 1.573e-7
-0.018, -3.176e-9, -2.937e-8, -2.619e-8, -4.616e-7, -3.016e-7, 1.600e-7
-0.019, -1.954e-9, -3.181e-8, -2.985e-8, -4.603e-7, -3.006e-7, 1.598e-7
-0.020, -5.130e-9, -3.083e-8, -2.570e-8, -4.642e-7, -3.047e-7, 1.595e-7
-0.021, 4.886e-9, -2.252e-8, -2.741e-8, -4.506e-7, -2.954e-7, 1.551e-7
-0.022, -3.420e-9, -3.254e-8, -2.912e-8, -4.598e-7, -2.984e-7, 1.615e-7
-0.023, -1.954e-9, -2.888e-8, -2.692e-8, -4.535e-7, -2.959e-7, 1.576e-7
-0.024, 4.886e-10, -3.156e-8, -3.205e-8, -4.640e-7, -3.045e-7, 1.595e-7
-0.025, 2.443e-10, -3.083e-8, -3.108e-8, -4.630e-7, -3.052e-7, 1.578e-7
-0.026, 4.153e-9, -2.619e-8, -3.034e-8, -4.552e-7, -3.011e-7, 1.541e-7
-0.027, -2.199e-9, -2.912e-8, -2.692e-8, -4.596e-7, -3.074e-7, 1.522e-7
-0.028, 7.329e-9, -2.766e-8, -3.498e-8, -4.586e-7, -3.052e-7, 1.534e-7
-0.029, -5.863e-9, -3.205e-8, -2.619e-8, -4.557e-7, -2.967e-7, 1.590e-7
-0.030, 3.665e-9, -2.961e-8, -3.327e-8, -4.457e-7, -2.984e-7, 1.473e-7
-0.031, 7.329e-10, -2.888e-8, -2.961e-8, -4.537e-7, -3.025e-7, 1.512e-7
-0.032, -1.466e-9, -2.985e-8, -2.839e-8, -4.608e-7, -3.016e-7, 1.593e-7
-0.033, 3.176e-9, -2.741e-8, -3.059e-8, -4.684e-7, -3.140e-7, 1.544e-7
-0.034, -2.199e-9, -3.010e-8, -2.790e-8, -4.501e-7, -2.989e-7, 1.512e-7
-0.035, -3.665e-9, -3.083e-8, -2.717e-8, -4.574e-7, -3.042e-7, 1.532e-7
-0.036, 1.221e-9, -2.961e-8, -3.083e-8, -4.466e-7, -2.954e-7, 1.512e-7
-0.037, 3.176e-9, -2.717e-8, -3.034e-8, -4.520e-7, -2.984e-7, 1.536e-7
-0.038, -1.222e-9, -2.912e-8, -2.790e-8, -4.528e-7, -3.028e-7, 1.500e-7
-0.039, 4.886e-9, -2.839e-8, -3.327e-8, -4.488e-7, -2.989e-7, 1.500e-7
-0.040, -6.108e-9, -3.401e-8, -2.790e-8, -4.628e-7, -3.030e-7, 1.598e-7
-0.041, -4.886e-10, -3.059e-8, -3.010e-8, -4.464e-7, -2.942e-7, 1.522e-7
-0.042, 1.466e-9, -2.766e-8, -2.912e-8, -4.581e-7, -3.018e-7, 1.563e-7
-0.043, 4.886e-10, -2.985e-8, -3.034e-8, -4.576e-7, -3.033e-7, 1.544e-7
-0.044, -5.130e-9, -3.401e-8, -2.888e-8, -4.581e-7, -2.979e-7, 1.602e-7
-0.045, -2.443e-10, -2.863e-8, -2.839e-8, -4.508e-7, -2.979e-7, 1.529e-7
-0.046, 1.710e-9, -2.888e-8, -3.059e-8, -4.491e-7, -3.008e-7, 1.483e-7
-0.047, 4.886e-10, -2.937e-8, -2.985e-8, -4.611e-7, -3.047e-7, 1.563e-7
-0.048, -3.665e-9, -3.132e-8, -2.766e-8, -4.557e-7, -3.003e-7, 1.554e-7
-0.049, -3.176e-9, -3.156e-8, -2.839e-8, -4.562e-7, -3.016e-7, 1.546e-7
-0.050, 3.176e-9, -2.839e-8, -3.156e-8, -4.613e-7, -3.072e-7, 1.541e-7
-0.051, 6.352e-9, -2.717e-8, -3.352e-8, -4.532e-7, -3.008e-7, 1.524e-7
-0.052, 7.329e-10, -3.083e-8, -3.156e-8, -4.589e-7, -3.003e-7, 1.585e-7
-0.053, 3.176e-9, -2.741e-8, -3.059e-8, -4.630e-7, -3.050e-7, 1.580e-7
-0.054, -9.772e-9, -3.181e-8, -2.204e-8, -4.484e-7, -2.989e-7, 1.495e-7
-0.055, -7.329e-9, -3.621e-8, -2.888e-8, -4.481e-7, -2.994e-7, 1.488e-7
-0.056, 9.772e-10, -2.863e-8, -2.961e-8, -4.559e-7, -3.023e-7, 1.536e-7
-0.057, -5.863e-9, -3.132e-8, -2.546e-8, -4.537e-7, -2.979e-7, 1.558e-7
-0.058, 6.840e-9, -2.717e-8, -3.401e-8, -4.528e-7, -2.994e-7, 1.534e-7
-0.059, -1.222e-9, -2.888e-8, -2.766e-8, -4.532e-7, -3.025e-7, 1.507e-7
-0.060, -1.222e-9, -3.010e-8, -2.888e-8, -4.459e-7, -2.935e-7, 1.524e-7
-0.061, 0.000e+0, -3.083e-8, -3.083e-8, -4.532e-7, -3.040e-7, 1.492e-7
-0.062, -1.710e-9, -2.790e-8, -2.619e-8, -4.613e-7, -3.060e-7, 1.554e-7
-0.063, 2.199e-9, -2.814e-8, -3.034e-8, -4.603e-7, -3.047e-7, 1.556e-7
-0.064, -5.619e-9, -3.034e-8, -2.472e-8, -4.545e-7, -3.006e-7, 1.539e-7
-0.065, 7.329e-10, -2.741e-8, -2.814e-8, -4.672e-7, -3.045e-7, 1.627e-7
-0.066, 4.886e-9, -2.814e-8, -3.303e-8, -4.596e-7, -3.016e-7, 1.580e-7
-0.067, -3.420e-9, -3.156e-8, -2.814e-8, -4.501e-7, -3.042e-7, 1.458e-7
-0.068, 6.840e-9, -2.790e-8, -3.474e-8, -4.586e-7, -3.042e-7, 1.544e-7
-0.069, -1.954e-9, -2.814e-8, -2.619e-8, -4.569e-7, -3.016e-7, 1.554e-7
-0.070, 1.954e-9, -2.717e-8, -2.912e-8, -4.528e-7, -2.991e-7, 1.536e-7
-0.071, -9.772e-10, -2.790e-8, -2.692e-8, -4.554e-7, -3.028e-7, 1.527e-7
-0.072, -4.886e-10, -3.034e-8, -2.985e-8, -4.613e-7, -3.042e-7, 1.571e-7
-0.073, -9.772e-10, -2.790e-8, -2.692e-8, -4.572e-7, -3.094e-7, 1.478e-7
-0.074, 3.176e-9, -2.619e-8, -2.937e-8, -4.620e-7, -3.052e-7, 1.568e-7
-0.075, -5.375e-9, -3.376e-8, -2.839e-8, -4.613e-7, -3.060e-7, 1.554e-7
-0.076, 2.932e-9, -2.717e-8, -3.010e-8, -4.608e-7, -3.040e-7, 1.568e-7
-0.077, 7.329e-10, -3.132e-8, -3.205e-8, -4.486e-7, -2.962e-7, 1.524e-7
-0.078, -3.420e-9, -3.181e-8, -2.839e-8, -4.518e-7, -3.006e-7, 1.512e-7
-0.079, -1.954e-9, -2.912e-8, -2.717e-8, -4.569e-7, -2.994e-7, 1.576e-7
-0.080, 1.954e-9, -2.741e-8, -2.937e-8, -4.562e-7, -3.038e-7, 1.524e-7
-0.081, -1.222e-9, -2.863e-8, -2.741e-8, -4.554e-7, -3.016e-7, 1.539e-7
-0.082, 1.710e-9, -2.790e-8, -2.961e-8, -4.518e-7, -3.035e-7, 1.483e-7
-0.083, 3.909e-9, -3.156e-8, -3.547e-8, -4.557e-7, -3.003e-7, 1.554e-7
-0.084, -2.443e-10, -2.961e-8, -2.937e-8, -4.545e-7, -3.008e-7, 1.536e-7
-0.085, 1.222e-9, -2.717e-8, -2.839e-8, -4.596e-7, -3.006e-7, 1.590e-7
-0.086, 2.443e-10, -2.741e-8, -2.766e-8, -4.518e-7, -3.013e-7, 1.505e-7
-0.087, -2.932e-9, -3.010e-8, -2.717e-8, -4.655e-7, -3.062e-7, 1.593e-7
-0.088, -2.443e-9, -2.985e-8, -2.741e-8, -4.598e-7, -3.042e-7, 1.556e-7
-0.089, 7.329e-10, -2.668e-8, -2.741e-8, -4.550e-7, -2.989e-7, 1.561e-7
-0.090, 9.772e-10, -3.059e-8, -3.156e-8, -4.535e-7, -2.976e-7, 1.558e-7
-0.091, 2.199e-9, -2.595e-8, -2.814e-8, -4.576e-7, -3.067e-7, 1.510e-7
-0.092, 4.153e-9, -2.619e-8, -3.034e-8, -4.471e-7, -2.952e-7, 1.519e-7
-0.093, 1.466e-9, -3.059e-8, -3.205e-8, -4.633e-7, -3.016e-7, 1.617e-7
-0.094, -9.772e-10, -2.961e-8, -2.863e-8, -4.696e-7, -3.104e-7, 1.593e-7
-0.095, -4.886e-10, -3.205e-8, -3.156e-8, -4.598e-7, -3.040e-7, 1.558e-7
-0.096, -2.443e-10, -3.010e-8, -2.985e-8, -4.562e-7, -3.008e-7, 1.554e-7
-0.097, -2.932e-9, -2.888e-8, -2.595e-8, -4.616e-7, -3.047e-7, 1.568e-7
-0.098, 2.443e-9, -2.888e-8, -3.132e-8, -4.506e-7, -2.969e-7, 1.536e-7
-0.099, -5.619e-9, -2.912e-8, -2.350e-8, -4.562e-7, -2.989e-7, 1.573e-7
-0.100, -4.886e-9, -3.083e-8, -2.595e-8, -4.699e-7, -3.086e-7, 1.612e-7
-0.101, 4.397e-9, -2.888e-8, -3.327e-8, -4.503e-7, -2.954e-7, 1.549e-7
-0.102, -7.573e-9, -3.425e-8, -2.668e-8, -4.532e-7, -2.972e-7, 1.561e-7
-0.103, 3.176e-9, -2.790e-8, -3.108e-8, -4.647e-7, -3.079e-7, 1.568e-7
-0.104, 3.909e-9, -2.619e-8, -3.010e-8, -4.589e-7, -3.052e-7, 1.536e-7
-0.105, -2.443e-9, -3.059e-8, -2.814e-8, -4.547e-7, -2.998e-7, 1.549e-7
-0.106, 0.000e+0, -2.985e-8, -2.985e-8, -4.476e-7, -2.969e-7, 1.507e-7
-0.107, 2.687e-9, -2.766e-8, -3.034e-8, -4.525e-7, -3.020e-7, 1.505e-7
-0.108, -5.375e-9, -3.205e-8, -2.668e-8, -4.513e-7, -2.994e-7, 1.519e-7
-0.109, -4.642e-9, -3.132e-8, -2.668e-8, -4.535e-7, -2.996e-7, 1.539e-7
-0.110, 0.000e+0, -2.912e-8, -2.912e-8, -4.611e-7, -3.028e-7, 1.583e-7
-0.111, -1.710e-9, -3.083e-8, -2.912e-8, -4.559e-7, -3.060e-7, 1.500e-7
-0.112, 6.840e-9, -2.521e-8, -3.205e-8, -4.464e-7, -2.981e-7, 1.483e-7
-0.113, 7.573e-9, -2.741e-8, -3.498e-8, -4.520e-7, -2.957e-7, 1.563e-7
-0.114, -2.932e-9, -3.156e-8, -2.863e-8, -4.559e-7, -3.069e-7, 1.490e-7
-0.115, 5.130e-9, -2.839e-8, -3.352e-8, -4.520e-7, -2.976e-7, 1.544e-7
-0.116, -1.710e-9, -2.961e-8, -2.790e-8, -4.545e-7, -3.011e-7, 1.534e-7
-0.117, -9.772e-10, -3.083e-8, -2.985e-8, -4.557e-7, -2.957e-7, 1.600e-7
-0.118, 1.466e-9, -3.083e-8, -3.230e-8, -4.606e-7, -3.077e-7, 1.529e-7
-0.119, 3.665e-9, -2.497e-8, -2.863e-8, -4.601e-7, -3.062e-7, 1.539e-7
-0.120, -4.886e-10, -3.083e-8, -3.034e-8, -4.550e-7, -3.011e-7, 1.539e-7
-0.121, 0.000e+0, -2.717e-8, -2.717e-8, -4.559e-7, -3.018e-7, 1.541e-7
-0.122, -2.199e-9, -3.401e-8, -3.181e-8, -4.493e-7, -2.991e-7, 1.502e-7
-0.123, 2.199e-9, -3.010e-8, -3.230e-8, -4.520e-7, -2.969e-7, 1.551e-7
-0.124, -1.222e-9, -2.985e-8, -2.863e-8, -4.523e-7, -2.986e-7, 1.536e-7
-0.125, -1.466e-9, -3.132e-8, -2.985e-8, -4.525e-7, -3.038e-7, 1.488e-7
-0.126, -2.199e-9, -2.912e-8, -2.692e-8, -4.491e-7, -2.986e-7, 1.505e-7
-0.127, -2.443e-10, -3.181e-8, -3.156e-8, -4.564e-7, -3.025e-7, 1.539e-7
-0.128, 9.772e-10, -2.814e-8, -2.912e-8, -4.518e-7, -2.981e-7, 1.536e-7
-0.129, 5.375e-9, -2.570e-8, -3.108e-8, -4.423e-7, -2.906e-7, 1.517e-7
-0.130, -1.710e-9, -3.254e-8, -3.083e-8, -4.520e-7, -2.994e-7, 1.527e-7
-0.131, -4.153e-9, -3.181e-8, -2.766e-8, -4.457e-7, -3.011e-7, 1.446e-7
-0.132, 2.443e-10, -2.839e-8, -2.863e-8, -4.471e-7, -2.957e-7, 1.514e-7
-0.133, -1.954e-9, -3.083e-8, -2.888e-8, -4.545e-7, -3.008e-7, 1.536e-7
-0.134, -2.932e-9, -3.010e-8, -2.717e-8, -4.479e-7, -2.952e-7, 1.527e-7
-0.135, -2.932e-9, -3.108e-8, -2.814e-8, -4.628e-7, -3.089e-7, 1.539e-7
-0.136, -7.329e-10, -2.937e-8, -2.863e-8, -4.464e-7, -2.950e-7, 1.514e-7
-0.137, 1.466e-9, -2.937e-8, -3.083e-8, -4.464e-7, -3.011e-7, 1.453e-7
-0.138, -1.466e-9, -2.863e-8, -2.717e-8, -4.498e-7, -3.013e-7, 1.485e-7
-0.139, 6.352e-9, -2.570e-8, -3.205e-8, -4.452e-7, -2.954e-7, 1.497e-7
-0.140, 2.932e-9, -2.937e-8, -3.230e-8, -4.613e-7, -3.079e-7, 1.534e-7
-0.141, -3.909e-9, -3.108e-8, -2.717e-8, -4.469e-7, -3.006e-7, 1.463e-7
-0.142, 2.932e-9, -2.668e-8, -2.961e-8, -4.435e-7, -2.942e-7, 1.492e-7
-0.143, 7.329e-10, -2.790e-8, -2.863e-8, -4.513e-7, -2.986e-7, 1.527e-7
-0.144, 9.772e-10, -2.985e-8, -3.083e-8, -4.491e-7, -2.986e-7, 1.505e-7
-0.145, 9.772e-10, -3.034e-8, -3.132e-8, -4.474e-7, -2.964e-7, 1.510e-7
-0.146, 2.932e-9, -2.741e-8, -3.034e-8, -4.498e-7, -3.006e-7, 1.492e-7
-0.147, 4.642e-9, -2.961e-8, -3.425e-8, -4.440e-7, -2.967e-7, 1.473e-7
-0.148, 1.710e-9, -2.912e-8, -3.083e-8, -4.532e-7, -2.984e-7, 1.549e-7
-0.149, -1.466e-9, -3.010e-8, -2.863e-8, -4.554e-7, -3.001e-7, 1.554e-7
-0.150, -4.153e-9, -2.985e-8, -2.570e-8, -4.576e-7, -3.033e-7, 1.544e-7
-0.151, 4.397e-9, -2.692e-8, -3.132e-8, -4.464e-7, -2.959e-7, 1.505e-7
-0.152, 4.397e-9, -2.326e-8, -2.766e-8, -4.462e-7, -2.979e-7, 1.483e-7
-0.153, 4.397e-9, -3.352e-8, -3.792e-8, -4.576e-7, -3.035e-7, 1.541e-7
-0.154, 3.909e-9, -2.619e-8, -3.010e-8, -4.513e-7, -2.989e-7, 1.524e-7
-0.155, 2.199e-9, -2.839e-8, -3.059e-8, -4.501e-7, -3.020e-7, 1.480e-7
-0.156, 4.886e-10, -2.717e-8, -2.766e-8, -4.562e-7, -3.042e-7, 1.519e-7
-0.157, 3.909e-9, -2.594e-8, -2.985e-8, -4.491e-7, -3.018e-7, 1.473e-7
-0.158, -4.886e-10, -2.961e-8, -2.912e-8, -4.581e-7, -3.062e-7, 1.519e-7
-0.159, 1.954e-9, -2.717e-8, -2.912e-8, -4.564e-7, -3.028e-7, 1.536e-7
-0.160, 7.329e-10, -2.888e-8, -2.961e-8, -4.635e-7, -3.082e-7, 1.554e-7
-0.161, -1.710e-9, -3.083e-8, -2.912e-8, -4.642e-7, -3.069e-7, 1.573e-7
-0.162, 1.222e-9, -2.546e-8, -2.668e-8, -4.506e-7, -3.062e-7, 1.444e-7
-0.163, 9.772e-10, -2.717e-8, -2.814e-8, -4.535e-7, -3.040e-7, 1.495e-7
-0.164, 2.443e-10, -3.205e-8, -3.230e-8, -4.579e-7, -3.052e-7, 1.527e-7
-0.165, 3.665e-9, -2.570e-8, -2.937e-8, -4.618e-7, -3.079e-7, 1.539e-7
-0.166, 4.886e-10, -2.717e-8, -2.766e-8, -4.628e-7, -3.091e-7, 1.536e-7
-0.167, -1.222e-9, -3.010e-8, -2.888e-8, -4.601e-7, -3.121e-7, 1.480e-7
-0.168, 2.199e-9, -2.790e-8, -3.010e-8, -4.608e-7, -3.108e-7, 1.500e-7
-0.169, -3.420e-9, -3.254e-8, -2.912e-8, -4.620e-7, -3.086e-7, 1.534e-7
-0.170, 1.710e-9, -2.692e-8, -2.863e-8, -4.542e-7, -3.099e-7, 1.444e-7
-0.171, -6.352e-9, -3.181e-8, -2.546e-8, -4.721e-7, -3.128e-7, 1.593e-7
-0.172, -2.687e-9, -3.034e-8, -2.766e-8, -4.608e-7, -3.086e-7, 1.522e-7
-0.173, -2.443e-10, -2.985e-8, -2.961e-8, -4.596e-7, -3.084e-7, 1.512e-7
-0.174, -1.222e-9, -2.985e-8, -2.863e-8, -4.660e-7, -3.143e-7, 1.517e-7
-0.175, -3.665e-9, -3.205e-8, -2.839e-8, -4.669e-7, -3.167e-7, 1.502e-7
-0.176, -7.329e-10, -2.912e-8, -2.839e-8, -4.657e-7, -3.152e-7, 1.505e-7
-0.177, 0.000e+0, -2.570e-8, -2.570e-8, -4.706e-7, -3.177e-7, 1.529e-7
-0.178, 7.329e-10, -2.863e-8, -2.937e-8, -4.708e-7, -3.177e-7, 1.532e-7
-0.179, -1.710e-9, -3.254e-8, -3.083e-8, -4.784e-7, -3.172e-7, 1.612e-7
-0.180, -4.886e-10, -2.937e-8, -2.888e-8, -4.699e-7, -3.189e-7, 1.510e-7
-0.181, 2.932e-9, -2.717e-8, -3.010e-8, -4.752e-7, -3.231e-7, 1.522e-7
-0.182, 5.130e-9, -2.668e-8, -3.181e-8, -4.708e-7, -3.187e-7, 1.522e-7
-0.183, 2.199e-9, -2.497e-8, -2.717e-8, -4.765e-7, -3.226e-7, 1.539e-7
-0.184, -1.954e-9, -3.132e-8, -2.937e-8, -4.870e-7, -3.270e-7, 1.600e-7
-0.185, -2.443e-10, -3.059e-8, -3.034e-8, -4.777e-7, -3.199e-7, 1.578e-7
-0.186, 2.932e-9, -2.790e-8, -3.083e-8, -4.725e-7, -3.204e-7, 1.522e-7
-0.187, -2.687e-9, -2.863e-8, -2.594e-8, -4.799e-7, -3.282e-7, 1.517e-7
-0.188, -9.772e-10, -2.912e-8, -2.814e-8, -4.850e-7, -3.282e-7, 1.568e-7
-0.189, -4.886e-9, -3.279e-8, -2.790e-8, -4.867e-7, -3.350e-7, 1.517e-7
-0.190, 1.222e-9, -2.888e-8, -3.010e-8, -4.955e-7, -3.331e-7, 1.624e-7
-0.191, -4.886e-10, -2.985e-8, -2.937e-8, -4.923e-7, -3.372e-7, 1.551e-7
-0.192, 7.329e-9, -2.521e-8, -3.254e-8, -5.024e-7, -3.446e-7, 1.578e-7
-0.193, -1.466e-9, -2.912e-8, -2.765e-8, -5.021e-7, -3.433e-7, 1.588e-7
-0.194, -2.199e-9, -2.888e-8, -2.668e-8, -5.075e-7, -3.470e-7, 1.605e-7
-0.195, 2.199e-9, -2.546e-8, -2.765e-8, -5.016e-7, -3.429e-7, 1.588e-7
-0.196, 3.176e-9, -2.765e-8, -3.083e-8, -5.082e-7, -3.465e-7, 1.617e-7
-0.197, -3.420e-9, -3.132e-8, -2.790e-8, -5.116e-7, -3.504e-7, 1.612e-7
-0.198, -4.886e-9, -3.083e-8, -2.594e-8, -5.187e-7, -3.509e-7, 1.678e-7
-0.199, -1.954e-9, -2.814e-8, -2.619e-8, -5.287e-7, -3.570e-7, 1.717e-7
-0.200, -4.886e-9, -3.156e-8, -2.668e-8, -5.219e-7, -3.558e-7, 1.661e-7
-0.201, -4.153e-9, -3.156e-8, -2.741e-8, -5.202e-7, -3.629e-7, 1.573e-7
-0.202, 3.176e-9, -2.790e-8, -3.108e-8, -5.214e-7, -3.592e-7, 1.622e-7
-0.203, 4.886e-10, -2.912e-8, -2.961e-8, -5.353e-7, -3.712e-7, 1.641e-7
-0.204, 4.886e-10, -3.083e-8, -3.132e-8, -5.444e-7, -3.714e-7, 1.729e-7
-0.205, 3.420e-9, -2.863e-8, -3.205e-8, -5.561e-7, -3.739e-7, 1.822e-7
-0.206, -3.176e-9, -2.937e-8, -2.619e-8, -5.512e-7, -3.793e-7, 1.720e-7
-0.207, -2.687e-9, -3.108e-8, -2.839e-8, -5.539e-7, -3.810e-7, 1.729e-7
-0.208, -1.954e-9, -3.108e-8, -2.912e-8, -5.739e-7, -3.937e-7, 1.803e-7
-0.209, 3.909e-9, -2.765e-8, -3.156e-8, -5.757e-7, -3.900e-7, 1.857e-7
-0.210, -7.329e-9, -3.205e-8, -2.472e-8, -5.796e-7, -3.964e-7, 1.832e-7
-0.211, 0.000e+0, -2.814e-8, -2.814e-8, -5.906e-7, -4.012e-7, 1.893e-7
-0.212, -3.420e-9, -3.156e-8, -2.814e-8, -5.957e-7, -4.081e-7, 1.876e-7
-0.213, -7.329e-10, -2.765e-8, -2.692e-8, -5.984e-7, -4.083e-7, 1.900e-7
-0.214, -6.840e-9, -3.401e-8, -2.717e-8, -6.130e-7, -4.213e-7, 1.918e-7
-0.215, -1.954e-9, -3.034e-8, -2.839e-8, -6.192e-7, -4.281e-7, 1.910e-7
-0.216, -1.466e-9, -3.279e-8, -3.132e-8, -6.284e-7, -4.303e-7, 1.981e-7
-0.217, 8.062e-9, -2.399e-8, -3.205e-8, -6.326e-7, -4.318e-7, 2.008e-7
-0.218, 1.222e-9, -2.765e-8, -2.888e-8, -6.502e-7, -4.438e-7, 2.064e-7
-0.219, -2.687e-9, -2.961e-8, -2.692e-8, -6.485e-7, -4.411e-7, 2.074e-7
-0.220, -6.108e-9, -3.059e-8, -2.448e-8, -6.702e-7, -4.604e-7, 2.098e-7
-0.221, 4.886e-9, -2.472e-8, -2.961e-8, -6.729e-7, -4.584e-7, 2.145e-7
-0.222, -5.863e-9, -3.303e-8, -2.717e-8, -6.829e-7, -4.692e-7, 2.138e-7
-0.223, 6.108e-9, -2.790e-8, -3.401e-8, -6.932e-7, -4.748e-7, 2.184e-7
-0.224, 1.710e-9, -2.814e-8, -2.985e-8, -6.993e-7, -4.763e-7, 2.230e-7
-0.225, -3.665e-9, -3.132e-8, -2.765e-8, -7.169e-7, -4.924e-7, 2.245e-7
-0.226, 5.375e-9, -2.546e-8, -3.083e-8, -7.330e-7, -4.987e-7, 2.343e-7
-0.227, -5.130e-9, -3.450e-8, -2.937e-8, -7.474e-7, -5.136e-7, 2.338e-7
-0.228, 2.443e-9, -2.717e-8, -2.961e-8, -7.623e-7, -5.168e-7, 2.455e-7
-0.229, 8.795e-9, -1.959e-8, -2.839e-8, -7.748e-7, -5.312e-7, 2.436e-7
-0.230, -2.199e-9, -3.132e-8, -2.912e-8, -7.907e-7, -5.391e-7, 2.516e-7
-0.231, 1.466e-9, -2.912e-8, -3.059e-8, -8.034e-7, -5.503e-7, 2.531e-7
-0.232, 2.199e-9, -2.643e-8, -2.863e-8, -8.254e-7, -5.584e-7, 2.670e-7
-0.233, -7.818e-9, -3.327e-8, -2.546e-8, -8.347e-7, -5.740e-7, 2.607e-7
-0.234, -2.443e-9, -2.692e-8, -2.448e-8, -8.566e-7, -5.852e-7, 2.714e-7
-0.235, -2.443e-10, -3.010e-8, -2.985e-8, -8.652e-7, -5.879e-7, 2.773e-7
-0.236, -4.886e-10, -2.912e-8, -2.863e-8, -8.828e-7, -5.992e-7, 2.836e-7
-0.237, 1.954e-9, -2.717e-8, -2.912e-8, -9.033e-7, -6.141e-7, 2.893e-7
-0.238, 8.062e-9, -2.228e-8, -3.034e-8, -9.287e-7, -6.297e-7, 2.990e-7
-0.239, -2.443e-9, -2.937e-8, -2.692e-8, -9.463e-7, -6.419e-7, 3.044e-7
-0.240, -3.665e-9, -3.034e-8, -2.668e-8, -9.634e-7, -6.517e-7, 3.117e-7
-0.241, 3.420e-9, -2.717e-8, -3.059e-8, -9.871e-7, -6.654e-7, 3.217e-7
-0.242, 1.710e-9, -2.692e-8, -2.863e-8, -1.000e-6, -6.754e-7, 3.247e-7
-0.243, 2.443e-10, -2.863e-8, -2.888e-8, -1.028e-6, -6.891e-7, 3.391e-7
-0.244, -1.710e-9, -2.863e-8, -2.692e-8, -1.054e-6, -7.106e-7, 3.437e-7
-0.245, 4.886e-10, -2.839e-8, -2.888e-8, -1.065e-6, -7.206e-7, 3.440e-7
-0.246, -4.153e-9, -2.888e-8, -2.472e-8, -1.092e-6, -7.309e-7, 3.608e-7
-0.247, -2.443e-10, -2.936e-8, -2.912e-8, -1.119e-6, -7.536e-7, 3.655e-7
-0.248, 2.932e-9, -2.643e-8, -2.936e-8, -1.141e-6, -7.638e-7, 3.775e-7
-0.249, -1.222e-9, -2.814e-8, -2.692e-8, -1.165e-6, -7.758e-7, 3.887e-7
-0.250, -1.222e-9, -2.985e-8, -2.863e-8, -1.184e-6, -7.853e-7, 3.982e-7
-0.251, -9.772e-10, -2.765e-8, -2.668e-8, -1.213e-6, -8.044e-7, 4.085e-7
-0.252, -9.772e-10, -3.132e-8, -3.034e-8, -1.236e-6, -8.203e-7, 4.161e-7
-0.253, 1.466e-9, -3.034e-8, -3.181e-8, -1.258e-6, -8.318e-7, 4.263e-7
-0.254, 1.954e-9, -2.985e-8, -3.181e-8, -1.289e-6, -8.489e-7, 4.400e-7
-0.255, -5.619e-9, -3.156e-8, -2.594e-8, -1.304e-6, -8.589e-7, 4.449e-7
-0.256, 5.619e-9, -2.692e-8, -3.254e-8, -1.333e-6, -8.760e-7, 4.571e-7
-0.257, 3.909e-9, -2.814e-8, -3.205e-8, -1.359e-6, -8.892e-7, 4.696e-7
-0.258, -9.772e-10, -2.888e-8, -2.790e-8, -1.385e-6, -9.063e-7, 4.786e-7
-0.259, 9.772e-10, -2.912e-8, -3.010e-8, -1.411e-6, -9.163e-7, 4.947e-7
-0.260, 1.710e-9, -2.741e-8, -2.912e-8, -1.428e-6, -9.302e-7, 4.977e-7
-0.261, -3.909e-9, -3.230e-8, -2.839e-8, -1.450e-6, -9.449e-7, 5.052e-7
-0.262, 2.199e-9, -2.814e-8, -3.034e-8, -1.478e-6, -9.554e-7, 5.223e-7
-0.263, 3.665e-9, -2.741e-8, -3.108e-8, -1.505e-6, -9.725e-7, 5.329e-7
-0.264, -1.954e-9, -2.936e-8, -2.741e-8, -1.534e-6, -9.879e-7, 5.460e-7
-0.265, -4.397e-9, -3.230e-8, -2.790e-8, -1.559e-6, -1.001e-6, 5.580e-7
-0.266, 3.420e-9, -2.839e-8, -3.181e-8, -1.571e-6, -1.003e-6, 5.685e-7
-0.267, 3.665e-9, -2.888e-8, -3.254e-8, -1.593e-6, -1.019e-6, 5.741e-7
-0.268, 2.932e-9, -2.717e-8, -3.010e-8, -1.613e-6, -1.025e-6, 5.878e-7
-0.269, -2.199e-9, -3.279e-8, -3.059e-8, -1.641e-6, -1.044e-6, 5.974e-7
-0.270, 1.222e-9, -2.765e-8, -2.888e-8, -1.657e-6, -1.051e-6, 6.064e-7
-0.271, -9.772e-10, -3.010e-8, -2.912e-8, -1.671e-6, -1.052e-6, 6.191e-7
-0.272, 7.329e-10, -2.839e-8, -2.912e-8, -1.690e-6, -1.063e-6, 6.269e-7
-0.273, 2.443e-10, -2.692e-8, -2.717e-8, -1.711e-6, -1.076e-6, 6.343e-7
-0.274, 3.420e-9, -2.839e-8, -3.181e-8, -1.719e-6, -1.077e-6, 6.421e-7
-0.275, -2.932e-9, -3.205e-8, -2.912e-8, -1.740e-6, -1.078e-6, 6.616e-7
-0.276, -4.886e-9, -2.912e-8, -2.423e-8, -1.749e-6, -1.089e-6, 6.609e-7
-0.277, 4.886e-10, -2.717e-8, -2.765e-8, -1.764e-6, -1.097e-6, 6.668e-7
-0.278, -2.443e-10, -3.156e-8, -3.132e-8, -1.775e-6, -1.093e-6, 6.812e-7
-0.279, -5.619e-9, -3.205e-8, -2.643e-8, -1.783e-6, -1.103e-6, 6.802e-7
-0.280, 1.221e-9, -2.961e-8, -3.083e-8, -1.788e-6, -1.097e-6, 6.909e-7
-0.281, 4.886e-10, -3.034e-8, -3.083e-8, -1.788e-6, -1.094e-6, 6.939e-7
-0.282, 5.130e-9, -2.741e-8, -3.254e-8, -1.789e-6, -1.094e-6, 6.951e-7
-0.283, -1.222e-9, -2.912e-8, -2.790e-8, -1.791e-6, -1.093e-6, 6.975e-7
-0.284, 2.199e-9, -2.814e-8, -3.034e-8, -1.808e-6, -1.098e-6, 7.100e-7
-0.285, 4.153e-9, -2.717e-8, -3.132e-8, -1.810e-6, -1.098e-6, 7.122e-7
-0.286, 7.329e-10, -2.985e-8, -3.059e-8, -1.803e-6, -1.085e-6, 7.176e-7
-0.287, 3.909e-9, -2.765e-8, -3.156e-8, -1.799e-6, -1.082e-6, 7.168e-7
-0.288, 0.000e+0, -2.936e-8, -2.936e-8, -1.794e-6, -1.077e-6, 7.171e-7
-0.289, -3.665e-9, -3.230e-8, -2.863e-8, -1.794e-6, -1.067e-6, 7.273e-7
-0.290, -9.772e-10, -2.985e-8, -2.888e-8, -1.789e-6, -1.064e-6, 7.244e-7
-0.291, -7.329e-10, -2.717e-8, -2.643e-8, -1.773e-6, -1.052e-6, 7.217e-7
-0.292, -1.710e-9, -3.034e-8, -2.863e-8, -1.771e-6, -1.050e-6, 7.208e-7
-0.293, -2.443e-10, -3.108e-8, -3.083e-8, -1.760e-6, -1.037e-6, 7.234e-7
-0.294, 4.642e-9, -2.692e-8, -3.156e-8, -1.740e-6, -1.026e-6, 7.144e-7
-0.295, 2.687e-9, -2.668e-8, -2.936e-8, -1.730e-6, -1.015e-6, 7.159e-7
-0.296, 9.772e-10, -2.863e-8, -2.961e-8, -1.709e-6, -1.002e-6, 7.063e-7
-0.297, 4.886e-10, -2.741e-8, -2.790e-8, -1.706e-6, -9.994e-7, 7.068e-7
-0.298, -9.772e-10, -3.401e-8, -3.303e-8, -1.688e-6, -9.840e-7, 7.036e-7
-0.299, 5.130e-9, -2.814e-8, -3.327e-8, -1.671e-6, -9.759e-7, 6.946e-7
-0.300, -4.886e-9, -3.010e-8, -2.521e-8, -1.650e-6, -9.620e-7, 6.878e-7
-0.301, -2.443e-10, -2.888e-8, -2.863e-8, -1.631e-6, -9.488e-7, 6.826e-7
-0.302, -3.176e-9, -3.156e-8, -2.839e-8, -1.612e-6, -9.332e-7, 6.785e-7
-0.303, 1.710e-9, -2.643e-8, -2.814e-8, -1.592e-6, -9.227e-7, 6.690e-7
-0.304, 8.306e-9, -2.765e-8, -3.596e-8, -1.573e-6, -9.100e-7, 6.631e-7
-0.305, 9.772e-10, -3.108e-8, -3.205e-8, -1.545e-6, -8.936e-7, 6.518e-7
-0.306, -6.596e-9, -3.352e-8, -2.692e-8, -1.526e-6, -8.770e-7, 6.492e-7
-0.307, 1.710e-9, -2.888e-8, -3.059e-8, -1.503e-6, -8.657e-7, 6.377e-7
-0.308, 4.397e-9, -2.790e-8, -3.230e-8, -1.472e-6, -8.464e-7, 6.259e-7
-0.309, -2.443e-10, -2.790e-8, -2.765e-8, -1.453e-6, -8.362e-7, 6.169e-7
-0.310, 2.443e-10, -2.814e-8, -2.839e-8, -1.430e-6, -8.249e-7, 6.047e-7
-0.311, 1.954e-9, -2.594e-8, -2.790e-8, -1.396e-6, -8.042e-7, 5.915e-7
-0.312, 9.772e-10, -2.643e-8, -2.741e-8, -1.377e-6, -7.897e-7, 5.876e-7
-0.313, -2.443e-10, -2.961e-8, -2.936e-8, -1.353e-6, -7.751e-7, 5.781e-7
-0.314, -4.642e-9, -3.181e-8, -2.717e-8, -1.318e-6, -7.580e-7, 5.597e-7
-0.315, -7.329e-10, -2.814e-8, -2.741e-8, -1.297e-6, -7.470e-7, 5.497e-7
-0.316, -2.199e-9, -2.961e-8, -2.741e-8, -1.273e-6, -7.333e-7, 5.392e-7
-0.317, -4.886e-10, -3.156e-8, -3.107e-8, -1.253e-6, -7.216e-7, 5.319e-7
-0.318, -2.199e-9, -2.741e-8, -2.521e-8, -1.228e-6, -7.091e-7, 5.187e-7
-0.319, 7.329e-10, -2.961e-8, -3.034e-8, -1.199e-6, -6.942e-7, 5.050e-7
-0.320, 3.665e-9, -2.668e-8, -3.034e-8, -1.173e-6, -6.786e-7, 4.940e-7
-0.321, 4.642e-9, -2.594e-8, -3.059e-8, -1.152e-6, -6.681e-7, 4.835e-7
-0.322, 2.199e-9, -2.619e-8, -2.839e-8, -1.131e-6, -6.576e-7, 4.732e-7
-0.323, 2.932e-9, -3.010e-8, -3.303e-8, -1.106e-6, -6.405e-7, 4.654e-7
-0.324, 1.173e-8, -2.375e-8, -3.547e-8, -1.091e-6, -6.292e-7, 4.618e-7
-0.325, -6.596e-9, -3.718e-8, -3.059e-8, -1.056e-6, -6.150e-7, 4.410e-7
-0.326, -7.329e-10, -2.790e-8, -2.717e-8, -1.045e-6, -6.109e-7, 4.341e-7
-0.327, 3.176e-9, -2.936e-8, -3.254e-8, -1.019e-6, -5.982e-7, 4.207e-7
-0.328, 1.710e-9, -2.961e-8, -3.132e-8, -1.006e-6, -5.887e-7, 4.170e-7
-0.329, -1.466e-9, -2.888e-8, -2.741e-8, -9.842e-7, -5.769e-7, 4.073e-7
-0.330, -9.772e-10, -2.985e-8, -2.888e-8, -9.544e-7, -5.657e-7, 3.887e-7
-0.331, -3.909e-9, -3.205e-8, -2.814e-8, -9.380e-7, -5.544e-7, 3.836e-7
-0.332, 5.375e-9, -2.692e-8, -3.230e-8, -9.192e-7, -5.505e-7, 3.687e-7
-0.333, 2.443e-9, -2.790e-8, -3.034e-8, -9.050e-7, -5.356e-7, 3.694e-7
-0.334, -2.443e-9, -3.010e-8, -2.765e-8, -8.884e-7, -5.312e-7, 3.572e-7
-0.335, 4.642e-9, -2.497e-8, -2.961e-8, -8.696e-7, -5.222e-7, 3.474e-7
-0.336, -1.466e-9, -3.450e-8, -3.303e-8, -8.439e-7, -5.112e-7, 3.327e-7
-0.337, 1.221e-9, -2.912e-8, -3.034e-8, -8.483e-7, -5.088e-7, 3.396e-7
-0.338, 3.909e-9, -2.399e-8, -2.790e-8, -8.263e-7, -4.931e-7, 3.332e-7
-0.339, 6.840e-9, -2.643e-8, -3.327e-8, -8.168e-7, -4.982e-7, 3.186e-7
-0.340, -1.710e-9, -2.936e-8, -2.765e-8, -7.929e-7, -4.826e-7, 3.103e-7
-0.341, 0.000e+0, -3.132e-8, -3.132e-8, -7.758e-7, -4.733e-7, 3.024e-7
-0.342, -3.909e-9, -3.059e-8, -2.668e-8, -7.770e-7, -4.777e-7, 2.993e-7
-0.343, 3.176e-9, -2.863e-8, -3.181e-8, -7.518e-7, -4.643e-7, 2.875e-7
-0.344, -2.199e-9, -3.059e-8, -2.839e-8, -7.440e-7, -4.552e-7, 2.888e-7
-0.345, 4.886e-10, -2.985e-8, -3.034e-8, -7.323e-7, -4.545e-7, 2.778e-7
-0.346, -3.909e-9, -3.010e-8, -2.619e-8, -7.220e-7, -4.501e-7, 2.719e-7
-0.347, -4.642e-9, -3.010e-8, -2.546e-8, -7.262e-7, -4.543e-7, 2.719e-7
-0.348, -2.932e-9, -3.034e-8, -2.741e-8, -7.012e-7, -4.357e-7, 2.655e-7
-0.349, -2.199e-9, -3.303e-8, -3.083e-8, -6.990e-7, -4.340e-7, 2.651e-7
-0.350, 7.329e-10, -2.790e-8, -2.863e-8, -6.856e-7, -4.301e-7, 2.555e-7
-0.351, 2.443e-10, -2.888e-8, -2.912e-8, -6.815e-7, -4.313e-7, 2.502e-7
-0.352, -4.397e-9, -2.814e-8, -2.375e-8, -6.685e-7, -4.252e-7, 2.433e-7
-0.353, -1.954e-9, -2.765e-8, -2.570e-8, -6.624e-7, -4.237e-7, 2.387e-7
-0.354, 2.443e-10, -2.619e-8, -2.643e-8, -6.485e-7, -4.127e-7, 2.357e-7
-0.355, 2.443e-9, -2.936e-8, -3.181e-8, -6.451e-7, -4.122e-7, 2.328e-7
-0.356, -5.130e-9, -3.376e-8, -2.863e-8, -6.370e-7, -4.110e-7, 2.260e-7
-0.357, 2.443e-10, -3.034e-8, -3.059e-8, -6.319e-7, -4.076e-7, 2.243e-7
-0.358, 7.329e-10, -2.790e-8, -2.863e-8, -6.311e-7, -4.071e-7, 2.240e-7
-0.359, 0.000e+0, -2.790e-8, -2.790e-8, -6.272e-7, -4.032e-7, 2.240e-7
-0.360, -2.443e-10, -2.839e-8, -2.814e-8, -6.140e-7, -4.008e-7, 2.133e-7
-0.361, 2.443e-10, -3.010e-8, -3.034e-8, -6.045e-7, -4.003e-7, 2.042e-7
-0.362, -6.596e-9, -3.230e-8, -2.570e-8, -5.898e-7, -3.881e-7, 2.018e-7
-0.363, -1.466e-9, -2.814e-8, -2.668e-8, -5.945e-7, -3.905e-7, 2.040e-7
-0.364, -9.772e-10, -2.936e-8, -2.839e-8, -5.898e-7, -3.878e-7, 2.020e-7
-0.365, -4.642e-9, -3.132e-8, -2.668e-8, -5.823e-7, -3.834e-7, 1.988e-7
-0.366, -1.466e-9, -3.034e-8, -2.888e-8, -5.810e-7, -3.839e-7, 1.971e-7
-0.367, 3.176e-9, -2.936e-8, -3.254e-8, -5.774e-7, -3.871e-7, 1.903e-7
-0.368, 3.665e-9, -2.814e-8, -3.181e-8, -5.791e-7, -3.844e-7, 1.947e-7
-0.369, -4.886e-9, -3.254e-8, -2.765e-8, -5.696e-7, -3.780e-7, 1.915e-7
-0.370, -6.108e-9, -2.985e-8, -2.375e-8, -5.581e-7, -3.727e-7, 1.854e-7
-0.371, 3.420e-9, -2.594e-8, -2.936e-8, -5.654e-7, -3.785e-7, 1.869e-7
-0.372, 4.642e-9, -2.692e-8, -3.156e-8, -5.615e-7, -3.763e-7, 1.852e-7
-0.373, 2.199e-9, -2.717e-8, -2.936e-8, -5.730e-7, -3.788e-7, 1.942e-7
-0.374, 2.199e-9, -2.570e-8, -2.790e-8, -5.605e-7, -3.739e-7, 1.866e-7
-0.375, -3.176e-9, -3.181e-8, -2.863e-8, -5.583e-7, -3.744e-7, 1.839e-7
-0.376, -1.710e-9, -2.888e-8, -2.717e-8, -5.463e-7, -3.702e-7, 1.761e-7
-0.377, -4.886e-10, -2.839e-8, -2.790e-8, -5.493e-7, -3.695e-7, 1.798e-7
-0.378, -4.886e-9, -3.083e-8, -2.594e-8, -5.412e-7, -3.680e-7, 1.732e-7
-0.379, -3.665e-9, -3.303e-8, -2.936e-8, -5.373e-7, -3.651e-7, 1.722e-7
-0.380, 9.772e-10, -2.594e-8, -2.692e-8, -5.410e-7, -3.622e-7, 1.788e-7
-0.381, 1.222e-9, -2.863e-8, -2.985e-8, -5.385e-7, -3.639e-7, 1.747e-7
-0.382, 0.000e+0, -3.010e-8, -3.010e-8, -5.263e-7, -3.636e-7, 1.627e-7
-0.383, 2.199e-9, -3.010e-8, -3.230e-8, -5.297e-7, -3.617e-7, 1.681e-7
-0.384, -5.375e-9, -3.327e-8, -2.790e-8, -5.339e-7, -3.641e-7, 1.698e-7
-0.385, 2.443e-10, -3.010e-8, -3.034e-8, -5.243e-7, -3.624e-7, 1.620e-7
-0.386, -1.466e-9, -2.912e-8, -2.765e-8, -5.258e-7, -3.604e-7, 1.654e-7
-0.387, 2.687e-9, -2.912e-8, -3.181e-8, -5.280e-7, -3.617e-7, 1.663e-7
-0.388, -2.199e-9, -3.376e-8, -3.156e-8, -5.200e-7, -3.551e-7, 1.649e-7
-0.389, 7.329e-10, -2.912e-8, -2.985e-8, -5.236e-7, -3.619e-7, 1.617e-7
-0.390, -1.710e-9, -3.034e-8, -2.863e-8, -5.212e-7, -3.573e-7, 1.639e-7
-0.391, 0.000e+0, -2.619e-8, -2.619e-8, -5.129e-7, -3.541e-7, 1.588e-7
-0.392, -9.772e-10, -3.083e-8, -2.985e-8, -5.243e-7, -3.578e-7, 1.666e-7
-0.393, 4.886e-10, -2.717e-8, -2.765e-8, -5.229e-7, -3.614e-7, 1.615e-7
-0.394, 1.954e-9, -2.765e-8, -2.961e-8, -5.112e-7, -3.560e-7, 1.551e-7
-0.395, 1.466e-9, -2.692e-8, -2.839e-8, -5.217e-7, -3.543e-7, 1.673e-7
-0.396, 3.909e-9, -2.790e-8, -3.181e-8, -5.090e-7, -3.534e-7, 1.556e-7
-0.397, -1.710e-9, -3.010e-8, -2.839e-8, -5.197e-7, -3.624e-7, 1.573e-7
-0.398, -5.130e-9, -2.985e-8, -2.472e-8, -5.114e-7, -3.521e-7, 1.593e-7
-0.399, -4.153e-9, -3.059e-8, -2.643e-8, -5.160e-7, -3.585e-7, 1.576e-7
-0.400, -2.199e-9, -3.083e-8, -2.863e-8, -5.134e-7, -3.519e-7, 1.615e-7
-0.401, 1.954e-9, -2.790e-8, -2.985e-8, -5.124e-7, -3.575e-7, 1.549e-7
-0.402, -2.443e-10, -3.107e-8, -3.083e-8, -5.107e-7, -3.553e-7, 1.554e-7
-0.403, -1.710e-9, -3.059e-8, -2.888e-8, -5.070e-7, -3.534e-7, 1.536e-7
-0.404, -1.710e-9, -2.888e-8, -2.717e-8, -5.072e-7, -3.509e-7, 1.563e-7
-0.405, 1.954e-9, -2.985e-8, -3.181e-8, -5.099e-7, -3.582e-7, 1.517e-7
-0.406, -5.863e-9, -3.181e-8, -2.594e-8, -5.031e-7, -3.514e-7, 1.517e-7
-0.407, -7.329e-10, -2.912e-8, -2.839e-8, -5.058e-7, -3.487e-7, 1.571e-7
-0.408, 1.954e-9, -2.888e-8, -3.083e-8, -5.126e-7, -3.592e-7, 1.534e-7
-0.409, -2.932e-9, -3.083e-8, -2.790e-8, -5.028e-7, -3.487e-7, 1.541e-7
-0.410, -1.710e-9, -2.765e-8, -2.594e-8, -5.160e-7, -3.629e-7, 1.532e-7
-0.411, 7.329e-10, -2.936e-8, -3.010e-8, -5.085e-7, -3.538e-7, 1.546e-7
-0.412, 4.886e-10, -3.059e-8, -3.107e-8, -5.065e-7, -3.565e-7, 1.500e-7
-0.413, -1.222e-9, -2.765e-8, -2.643e-8, -5.156e-7, -3.553e-7, 1.602e-7
-0.414, -3.665e-9, -3.205e-8, -2.839e-8, -5.031e-7, -3.509e-7, 1.522e-7
-0.415, 1.710e-9, -2.888e-8, -3.059e-8, -5.131e-7, -3.600e-7, 1.532e-7
-0.416, -7.329e-10, -2.985e-8, -2.912e-8, -5.085e-7, -3.507e-7, 1.578e-7
-0.417, 2.443e-10, -3.010e-8, -3.034e-8, -5.033e-7, -3.526e-7, 1.507e-7
-0.418, 4.886e-9, -2.643e-8, -3.132e-8, -4.992e-7, -3.512e-7, 1.480e-7
-0.419, -2.199e-9, -3.010e-8, -2.790e-8, -5.043e-7, -3.551e-7, 1.492e-7
-0.420, -2.199e-9, -3.156e-8, -2.936e-8, -4.977e-7, -3.475e-7, 1.502e-7
-0.421, -1.222e-9, -3.132e-8, -3.010e-8, -4.970e-7, -3.492e-7, 1.478e-7
-0.422, 3.420e-9, -2.912e-8, -3.254e-8, -5.053e-7, -3.504e-7, 1.549e-7
-0.423, -7.329e-10, -2.863e-8, -2.790e-8, -5.050e-7, -3.534e-7, 1.517e-7
-0.424, -1.710e-9, -2.985e-8, -2.814e-8, -5.026e-7, -3.556e-7, 1.470e-7
-0.425, 1.222e-9, -2.692e-8, -2.814e-8, -5.043e-7, -3.531e-7, 1.512e-7
-0.426, 4.642e-9, -2.448e-8, -2.912e-8, -5.046e-7, -3.516e-7, 1.529e-7
-0.427, 1.710e-9, -2.936e-8, -3.107e-8, -4.923e-7, -3.487e-7, 1.436e-7
-0.428, -1.222e-9, -2.961e-8, -2.839e-8, -4.992e-7, -3.499e-7, 1.492e-7
-0.429, 1.954e-9, -2.692e-8, -2.888e-8, -5.072e-7, -3.538e-7, 1.534e-7
-0.430, 2.443e-9, -2.839e-8, -3.083e-8, -4.984e-7, -3.556e-7, 1.429e-7
-0.431, 0.000e+0, -2.765e-8, -2.765e-8, -5.058e-7, -3.538e-7, 1.519e-7
-0.432, -1.954e-9, -3.156e-8, -2.961e-8, -5.092e-7, -3.597e-7, 1.495e-7
-0.433, -4.397e-9, -3.107e-8, -2.668e-8, -4.997e-7, -3.480e-7, 1.517e-7
-0.434, 2.443e-10, -3.083e-8, -3.107e-8, -4.989e-7, -3.587e-7, 1.402e-7
-0.435, 2.443e-9, -2.594e-8, -2.839e-8, -5.038e-7, -3.563e-7, 1.475e-7
-0.436, 1.222e-9, -2.863e-8, -2.985e-8, -5.131e-7, -3.595e-7, 1.536e-7
-0.437, 4.153e-9, -2.643e-8, -3.059e-8, -5.006e-7, -3.502e-7, 1.505e-7
-0.438, 1.002e-8, -2.472e-8, -3.474e-8, -4.950e-7, -3.541e-7, 1.409e-7
-0.439, 4.153e-9, -2.448e-8, -2.863e-8, -5.060e-7, -3.541e-7, 1.519e-7
-0.440, -9.039e-9, -3.621e-8, -2.717e-8, -5.043e-7, -3.609e-7, 1.434e-7
-0.441, 3.665e-9, -2.594e-8, -2.961e-8, -4.987e-7, -3.477e-7, 1.510e-7
-0.442, 6.108e-9, -2.594e-8, -3.205e-8, -5.026e-7, -3.551e-7, 1.475e-7
-0.443, 2.443e-9, -2.814e-8, -3.059e-8, -4.955e-7, -3.497e-7, 1.458e-7
-0.444, -2.443e-9, -2.912e-8, -2.668e-8, -5.097e-7, -3.604e-7, 1.492e-7
-0.445, -6.108e-9, -3.498e-8, -2.888e-8, -5.043e-7, -3.568e-7, 1.475e-7
-0.446, 2.687e-9, -2.936e-8, -3.205e-8, -4.950e-7, -3.514e-7, 1.436e-7
-0.447, -1.466e-9, -3.034e-8, -2.888e-8, -5.107e-7, -3.587e-7, 1.519e-7
-0.448, 4.153e-9, -2.643e-8, -3.059e-8, -5.087e-7, -3.619e-7, 1.468e-7
-0.449, -1.466e-9, -3.205e-8, -3.059e-8, -5.060e-7, -3.587e-7, 1.473e-7
-0.450, 9.772e-10, -2.741e-8, -2.839e-8, -5.028e-7, -3.546e-7, 1.483e-7
-0.451, -1.466e-9, -2.985e-8, -2.839e-8, -5.041e-7, -3.580e-7, 1.461e-7
-0.452, 4.642e-9, -2.668e-8, -3.132e-8, -5.075e-7, -3.639e-7, 1.436e-7
-0.453, -3.909e-9, -3.230e-8, -2.839e-8, -4.997e-7, -3.560e-7, 1.436e-7
-0.454, -7.329e-10, -2.912e-8, -2.839e-8, -5.099e-7, -3.624e-7, 1.475e-7
-0.455, 2.443e-10, -2.985e-8, -3.010e-8, -5.055e-7, -3.580e-7, 1.475e-7
-0.456, 1.222e-9, -2.741e-8, -2.863e-8, -5.046e-7, -3.592e-7, 1.453e-7
-0.457, 9.772e-10, -2.741e-8, -2.839e-8, -5.090e-7, -3.622e-7, 1.468e-7
-0.458, -1.954e-9, -3.010e-8, -2.814e-8, -5.092e-7, -3.634e-7, 1.458e-7
-0.459, -2.443e-10, -2.863e-8, -2.839e-8, -5.094e-7, -3.617e-7, 1.478e-7
-0.460, -4.397e-9, -3.132e-8, -2.692e-8, -5.058e-7, -3.585e-7, 1.473e-7
-0.461, 5.130e-9, -2.765e-8, -3.278e-8, -5.060e-7, -3.590e-7, 1.470e-7
-0.462, -3.420e-9, -3.156e-8, -2.814e-8, -5.060e-7, -3.573e-7, 1.488e-7
-0.463, 1.222e-9, -2.839e-8, -2.961e-8, -5.085e-7, -3.614e-7, 1.470e-7
-0.464, -2.932e-9, -2.814e-8, -2.521e-8, -5.085e-7, -3.578e-7, 1.507e-7
-0.465, -1.954e-9, -3.059e-8, -2.863e-8, -5.148e-7, -3.695e-7, 1.453e-7
-0.466, -9.772e-10, -2.863e-8, -2.765e-8, -5.072e-7, -3.590e-7, 1.483e-7
-0.467, 1.954e-9, -2.692e-8, -2.888e-8, -5.136e-7, -3.646e-7, 1.490e-7
-0.468, -7.329e-10, -3.034e-8, -2.961e-8, -5.070e-7, -3.651e-7, 1.419e-7
-0.469, 1.954e-9, -2.619e-8, -2.814e-8, -5.080e-7, -3.578e-7, 1.502e-7
-0.470, 2.199e-9, -3.107e-8, -3.327e-8, -5.102e-7, -3.670e-7, 1.431e-7
-0.471, -1.222e-9, -2.936e-8, -2.814e-8, -5.104e-7, -3.614e-7, 1.490e-7
-0.472, -2.443e-10, -2.814e-8, -2.790e-8, -5.214e-7, -3.663e-7, 1.551e-7
-0.473, -5.619e-9, -3.107e-8, -2.546e-8, -5.136e-7, -3.636e-7, 1.500e-7
-0.474, 4.397e-9, -2.399e-8, -2.839e-8, -5.116e-7, -3.631e-7, 1.485e-7
-0.475, -2.443e-10, -2.985e-8, -2.961e-8, -5.109e-7, -3.629e-7, 1.480e-7
-0.476, -6.596e-9, -3.376e-8, -2.717e-8, -5.065e-7, -3.644e-7, 1.422e-7
-0.477, -4.886e-10, -2.888e-8, -2.839e-8, -5.160e-7, -3.692e-7, 1.468e-7
-0.478, 5.619e-9, -2.448e-8, -3.010e-8, -5.136e-7, -3.663e-7, 1.473e-7
-0.479, -2.199e-9, -3.156e-8, -2.936e-8, -5.192e-7, -3.705e-7, 1.488e-7
-0.480, 9.772e-10, -3.083e-8, -3.181e-8, -5.156e-7, -3.653e-7, 1.502e-7
-0.481, -2.687e-9, -3.181e-8, -2.912e-8, -5.060e-7, -3.641e-7, 1.419e-7
-0.482, -2.199e-9, -3.059e-8, -2.839e-8, -5.168e-7, -3.695e-7, 1.473e-7
-0.483, 3.909e-9, -2.643e-8, -3.034e-8, -5.058e-7, -3.646e-7, 1.412e-7
-0.484, 2.199e-9, -2.814e-8, -3.034e-8, -5.160e-7, -3.739e-7, 1.422e-7
-0.485, -7.329e-9, -3.254e-8, -2.521e-8, -5.236e-7, -3.722e-7, 1.514e-7
-0.486, -7.329e-10, -2.741e-8, -2.668e-8, -5.165e-7, -3.731e-7, 1.434e-7
-0.487, -4.886e-10, -2.863e-8, -2.814e-8, -5.146e-7, -3.705e-7, 1.441e-7
-0.488, 2.443e-10, -2.814e-8, -2.839e-8, -5.129e-7, -3.756e-7, 1.373e-7
-0.489, 4.397e-9, -2.643e-8, -3.083e-8, -5.175e-7, -3.692e-7, 1.483e-7
-0.490, -1.710e-9, -2.888e-8, -2.717e-8, -5.236e-7, -3.797e-7, 1.439e-7
-0.491, 3.909e-9, -2.790e-8, -3.181e-8, -5.180e-7, -3.741e-7, 1.439e-7
-0.492, 7.818e-9, -2.423e-8, -3.205e-8, -5.151e-7, -3.680e-7, 1.470e-7
-0.493, -3.420e-9, -3.156e-8, -2.814e-8, -5.239e-7, -3.763e-7, 1.475e-7
-0.494, 2.443e-9, -2.765e-8, -3.010e-8, -5.251e-7, -3.756e-7, 1.495e-7
-0.495, 4.886e-10, -2.863e-8, -2.912e-8, -5.261e-7, -3.788e-7, 1.473e-7
-0.496, 5.375e-9, -2.839e-8, -3.376e-8, -5.258e-7, -3.780e-7, 1.478e-7
-0.497, -1.710e-9, -3.230e-8, -3.059e-8, -5.334e-7, -3.810e-7, 1.524e-7
-0.498, 4.886e-10, -2.863e-8, -2.912e-8, -5.200e-7, -3.739e-7, 1.461e-7
-0.499, 2.443e-10, -2.985e-8, -3.010e-8, -5.226e-7, -3.805e-7, 1.422e-7
-0.500, 7.329e-9, -2.692e-8, -3.425e-8, -5.314e-7, -3.839e-7, 1.475e-7
-0.501, 2.199e-9, -2.619e-8, -2.839e-8, -5.253e-7, -3.841e-7, 1.412e-7
-0.502, -3.665e-9, -3.083e-8, -2.717e-8, -5.265e-7, -3.780e-7, 1.485e-7
-0.503, 2.443e-9, -2.936e-8, -3.181e-8, -5.385e-7, -3.851e-7, 1.534e-7
-0.504, 9.772e-10, -2.888e-8, -2.985e-8, -5.231e-7, -3.773e-7, 1.458e-7
-0.505, -1.222e-9, -3.059e-8, -2.936e-8, -5.314e-7, -3.788e-7, 1.527e-7
-0.506, 2.443e-10, -2.912e-8, -2.936e-8, -5.305e-7, -3.824e-7, 1.480e-7
-0.507, 1.222e-9, -3.034e-8, -3.156e-8, -5.363e-7, -3.873e-7, 1.490e-7
-0.508, -1.954e-9, -2.888e-8, -2.692e-8, -5.239e-7, -3.790e-7, 1.448e-7
-0.509, -3.420e-9, -3.181e-8, -2.839e-8, -5.349e-7, -3.846e-7, 1.502e-7
-0.510, 4.886e-10, -2.741e-8, -2.790e-8, -5.226e-7, -3.822e-7, 1.404e-7
-0.511, -7.085e-9, -3.278e-8, -2.570e-8, -5.309e-7, -3.846e-7, 1.463e-7
-0.512, 2.443e-10, -2.594e-8, -2.619e-8, -5.463e-7, -3.964e-7, 1.500e-7
-0.513, -2.443e-9, -3.205e-8, -2.961e-8, -5.441e-7, -3.934e-7, 1.507e-7
-0.514, -1.710e-9, -3.083e-8, -2.912e-8, -5.366e-7, -3.903e-7, 1.463e-7
-0.515, 1.222e-9, -2.863e-8, -2.985e-8, -5.407e-7, -3.961e-7, 1.446e-7
-0.516, 5.130e-9, -2.863e-8, -3.376e-8, -5.331e-7, -3.900e-7, 1.431e-7
-0.517, -2.443e-9, -3.107e-8, -2.863e-8, -5.463e-7, -3.949e-7, 1.514e-7
-0.518, 9.772e-10, -2.985e-8, -3.083e-8, -5.432e-7, -3.888e-7, 1.544e-7
-0.519, -2.687e-9, -2.961e-8, -2.692e-8, -5.439e-7, -3.951e-7, 1.488e-7
-0.520, 4.886e-10, -3.181e-8, -3.230e-8, -5.363e-7, -3.859e-7, 1.505e-7
-0.521, -2.443e-9, -3.083e-8, -2.839e-8, -5.432e-7, -3.964e-7, 1.468e-7
-0.522, 7.329e-9, -2.546e-8, -3.278e-8, -5.427e-7, -3.934e-7, 1.492e-7
-0.523, -4.886e-10, -2.936e-8, -2.888e-8, -5.488e-7, -3.927e-7, 1.561e-7
-0.524, 8.795e-9, -2.668e-8, -3.547e-8, -5.483e-7, -3.978e-7, 1.505e-7
-0.525, -1.222e-9, -3.107e-8, -2.985e-8, -5.422e-7, -3.971e-7, 1.451e-7
-0.526, -2.932e-9, -3.083e-8, -2.790e-8, -5.480e-7, -3.966e-7, 1.514e-7
-0.527, -2.199e-9, -3.156e-8, -2.936e-8, -5.429e-7, -3.959e-7, 1.470e-7
-0.528, 7.085e-9, -2.472e-8, -3.181e-8, -5.510e-7, -4.047e-7, 1.463e-7
-0.529, -2.443e-9, -2.839e-8, -2.594e-8, -5.427e-7, -3.968e-7, 1.458e-7
-0.530, -2.443e-10, -2.839e-8, -2.814e-8, -5.456e-7, -4.020e-7, 1.436e-7
-0.531, -1.222e-9, -2.985e-8, -2.863e-8, -5.571e-7, -4.056e-7, 1.514e-7
-0.532, 2.199e-9, -3.181e-8, -3.401e-8, -5.620e-7, -4.096e-7, 1.524e-7
-0.533, -4.886e-10, -2.936e-8, -2.888e-8, -5.568e-7, -4.066e-7, 1.502e-7
-0.534, 7.329e-10, -2.668e-8, -2.741e-8, -5.546e-7, -4.042e-7, 1.505e-7
-0.535, 7.329e-10, -2.985e-8, -3.059e-8, -5.559e-7, -4.069e-7, 1.490e-7
-0.536, -4.886e-9, -3.205e-8, -2.717e-8, -5.603e-7, -4.110e-7, 1.492e-7
-0.537, 4.886e-10, -3.034e-8, -3.083e-8, -5.478e-7, -4.064e-7, 1.414e-7
-0.538, 4.153e-9, -2.643e-8, -3.059e-8, -5.590e-7, -4.083e-7, 1.507e-7
-0.539, -9.772e-10, -3.107e-8, -3.010e-8, -5.659e-7, -4.096e-7, 1.563e-7
-0.540, -2.443e-9, -3.181e-8, -2.936e-8, -5.666e-7, -4.140e-7, 1.527e-7
-0.541, 1.466e-9, -2.888e-8, -3.034e-8, -5.647e-7, -4.130e-7, 1.517e-7
-0.542, -3.909e-9, -2.936e-8, -2.546e-8, -5.681e-7, -4.210e-7, 1.470e-7
-0.543, 9.772e-10, -3.010e-8, -3.107e-8, -5.593e-7, -4.103e-7, 1.490e-7
-0.544, 7.818e-9, -2.668e-8, -3.449e-8, -5.703e-7, -4.144e-7, 1.558e-7
-0.545, 4.153e-9, -2.472e-8, -2.888e-8, -5.610e-7, -4.144e-7, 1.466e-7
-0.546, 1.710e-9, -2.790e-8, -2.961e-8, -5.732e-7, -4.218e-7, 1.514e-7
-0.547, 5.375e-9, -2.448e-8, -2.985e-8, -5.637e-7, -4.152e-7, 1.485e-7
-0.548, -4.886e-10, -2.985e-8, -2.936e-8, -5.705e-7, -4.230e-7, 1.475e-7
-0.549, 7.329e-10, -2.961e-8, -3.034e-8, -5.715e-7, -4.262e-7, 1.453e-7
-0.550, 3.420e-9, -2.814e-8, -3.156e-8, -5.747e-7, -4.252e-7, 1.495e-7
-0.551, -1.466e-9, -3.034e-8, -2.888e-8, -5.700e-7, -4.191e-7, 1.510e-7
-0.552, -6.108e-9, -3.205e-8, -2.594e-8, -5.617e-7, -4.176e-7, 1.441e-7
-0.553, 5.375e-9, -2.521e-8, -3.059e-8, -5.732e-7, -4.201e-7, 1.532e-7
-0.554, 2.443e-10, -2.814e-8, -2.839e-8, -5.686e-7, -4.225e-7, 1.461e-7
-0.555, -2.199e-9, -2.961e-8, -2.741e-8, -5.776e-7, -4.291e-7, 1.485e-7
-0.556, -6.596e-9, -3.107e-8, -2.448e-8, -5.766e-7, -4.279e-7, 1.488e-7
-0.557, 3.176e-9, -2.717e-8, -3.034e-8, -5.754e-7, -4.218e-7, 1.536e-7
-0.558, -2.932e-9, -3.107e-8, -2.814e-8, -5.771e-7, -4.320e-7, 1.451e-7
-0.559, 1.466e-9, -2.692e-8, -2.839e-8, -5.774e-7, -4.291e-7, 1.483e-7
-0.560, 1.222e-9, -2.936e-8, -3.059e-8, -5.835e-7, -4.340e-7, 1.495e-7
-0.561, -5.130e-9, -3.132e-8, -2.619e-8, -5.908e-7, -4.347e-7, 1.561e-7
-0.562, 3.176e-9, -2.814e-8, -3.132e-8, -5.815e-7, -4.355e-7, 1.461e-7
-0.563, -7.329e-10, -2.888e-8, -2.814e-8, -5.837e-7, -4.337e-7, 1.500e-7
-0.564, 1.954e-9, -2.912e-8, -3.107e-8, -5.832e-7, -4.337e-7, 1.495e-7
-0.565, -4.886e-10, -2.888e-8, -2.839e-8, -6.047e-7, -4.477e-7, 1.571e-7
-0.566, -3.420e-9, -2.936e-8, -2.594e-8, -5.935e-7, -4.408e-7, 1.527e-7
-0.567, -4.886e-10, -2.790e-8, -2.741e-8, -5.881e-7, -4.396e-7, 1.485e-7
-0.568, 4.886e-10, -2.692e-8, -2.741e-8, -5.918e-7, -4.401e-7, 1.517e-7
-0.569, 2.687e-9, -2.472e-8, -2.741e-8, -5.881e-7, -4.433e-7, 1.448e-7
-0.570, -3.176e-9, -3.083e-8, -2.765e-8, -5.940e-7, -4.464e-7, 1.475e-7
-0.571, 1.710e-9, -2.765e-8, -2.936e-8, -5.913e-7, -4.474e-7, 1.439e-7
-0.572, -1.954e-9, -2.814e-8, -2.619e-8, -5.972e-7, -4.508e-7, 1.463e-7
-0.573, 3.420e-9, -2.765e-8, -3.107e-8, -6.045e-7, -4.533e-7, 1.512e-7
-0.574, 1.954e-9, -2.521e-8, -2.717e-8, -5.991e-7, -4.528e-7, 1.463e-7
-0.575, -1.466e-9, -3.181e-8, -3.034e-8, -5.969e-7, -4.557e-7, 1.412e-7
-0.576, 2.443e-9, -2.790e-8, -3.034e-8, -5.989e-7, -4.511e-7, 1.478e-7
-0.577, -2.443e-10, -2.961e-8, -2.936e-8, -6.182e-7, -4.579e-7, 1.602e-7
-0.578, -2.199e-9, -2.912e-8, -2.692e-8, -6.157e-7, -4.626e-7, 1.532e-7
-0.579, -1.710e-9, -3.303e-8, -3.132e-8, -5.979e-7, -4.526e-7, 1.453e-7
-0.580, 1.954e-9, -2.668e-8, -2.863e-8, -6.077e-7, -4.604e-7, 1.473e-7
-0.581, 1.710e-9, -2.888e-8, -3.059e-8, -6.140e-7, -4.628e-7, 1.512e-7
-0.582, 1.710e-9, -2.668e-8, -2.839e-8, -6.135e-7, -4.604e-7, 1.532e-7
-0.583, 6.596e-9, -2.521e-8, -3.181e-8, -6.223e-7, -4.721e-7, 1.502e-7
-0.584, 2.199e-9, -2.936e-8, -3.156e-8, -6.182e-7, -4.638e-7, 1.544e-7
-0.585, 2.443e-10, -2.985e-8, -3.010e-8, -6.214e-7, -4.738e-7, 1.475e-7
-0.586, -4.153e-9, -3.205e-8, -2.790e-8, -6.272e-7, -4.719e-7, 1.554e-7
-0.587, 6.596e-9, -2.717e-8, -3.376e-8, -6.245e-7, -4.731e-7, 1.514e-7
-0.588, 0.000e+0, -3.010e-8, -3.010e-8, -6.260e-7, -4.711e-7, 1.549e-7
-0.589, -2.687e-9, -3.254e-8, -2.985e-8, -6.253e-7, -4.741e-7, 1.512e-7
-0.590, -1.222e-9, -3.034e-8, -2.912e-8, -6.311e-7, -4.814e-7, 1.497e-7
-0.591, -1.710e-9, -3.059e-8, -2.888e-8, -6.304e-7, -4.851e-7, 1.453e-7
-0.592, -2.199e-9, -2.961e-8, -2.741e-8, -6.311e-7, -4.848e-7, 1.463e-7
-0.593, 4.397e-9, -2.643e-8, -3.083e-8, -6.402e-7, -4.921e-7, 1.480e-7
-0.594, -6.108e-9, -3.107e-8, -2.497e-8, -6.331e-7, -4.846e-7, 1.485e-7
-0.595, -1.954e-9, -2.961e-8, -2.765e-8, -6.348e-7, -4.899e-7, 1.448e-7
-0.596, -7.085e-9, -3.107e-8, -2.399e-8, -6.275e-7, -4.853e-7, 1.422e-7
-0.597, 2.687e-9, -2.717e-8, -2.985e-8, -6.404e-7, -4.939e-7, 1.466e-7
-0.598, -1.710e-9, -3.132e-8, -2.961e-8, -6.382e-7, -4.880e-7, 1.502e-7
-0.599, -7.818e-9, -3.523e-8, -2.741e-8, -6.473e-7, -4.987e-7, 1.485e-7
-0.600, -1.466e-9, -2.814e-8, -2.668e-8, -6.546e-7, -5.024e-7, 1.522e-7
-0.601, -2.443e-10, -2.521e-8, -2.497e-8, -6.468e-7, -4.980e-7, 1.488e-7
-0.602, -4.153e-9, -3.010e-8, -2.594e-8, -6.473e-7, -5.061e-7, 1.412e-7
-0.603, -1.710e-9, -3.034e-8, -2.863e-8, -6.548e-7, -5.100e-7, 1.448e-7
-0.604, -1.222e-9, -2.619e-8, -2.497e-8, -6.595e-7, -5.073e-7, 1.522e-7
-0.605, 1.222e-9, -2.888e-8, -3.010e-8, -6.609e-7, -5.100e-7, 1.510e-7
-0.606, -2.443e-10, -2.888e-8, -2.863e-8, -6.600e-7, -5.146e-7, 1.453e-7
-0.607, 1.466e-9, -2.863e-8, -3.010e-8, -6.614e-7, -5.129e-7, 1.485e-7
-0.608, 6.108e-9, -2.717e-8, -3.327e-8, -6.646e-7, -5.158e-7, 1.488e-7
-0.609, -1.222e-9, -2.839e-8, -2.717e-8, -6.717e-7, -5.173e-7, 1.544e-7
-0.610, -2.932e-9, -3.010e-8, -2.717e-8, -6.719e-7, -5.227e-7, 1.492e-7
-0.611, -7.573e-9, -3.254e-8, -2.497e-8, -6.697e-7, -5.219e-7, 1.478e-7
-0.612, 3.665e-9, -2.717e-8, -3.083e-8, -6.695e-7, -5.273e-7, 1.422e-7
-0.613, -3.909e-9, -3.181e-8, -2.790e-8, -6.741e-7, -5.251e-7, 1.490e-7
-0.614, 4.886e-10, -2.765e-8, -2.814e-8, -6.771e-7, -5.329e-7, 1.441e-7
-0.615, 9.772e-10, -3.010e-8, -3.107e-8, -6.868e-7, -5.354e-7, 1.514e-7
-0.616, 4.886e-10, -2.839e-8, -2.888e-8, -6.881e-7, -5.413e-7, 1.468e-7
-0.617, 9.772e-10, -3.010e-8, -3.107e-8, -6.883e-7, -5.403e-7, 1.480e-7
-0.618, 5.619e-9, -2.326e-8, -2.888e-8, -6.861e-7, -5.415e-7, 1.446e-7
-0.619, 1.222e-9, -2.863e-8, -2.985e-8, -7.061e-7, -5.508e-7, 1.554e-7
-0.620, -2.443e-9, -2.668e-8, -2.423e-8, -7.049e-7, -5.540e-7, 1.510e-7
-0.621, -1.954e-9, -2.936e-8, -2.741e-8, -6.925e-7, -5.498e-7, 1.426e-7
-0.622, -9.772e-10, -2.839e-8, -2.741e-8, -7.037e-7, -5.632e-7, 1.404e-7
-0.623, 7.329e-10, -3.156e-8, -3.230e-8, -7.122e-7, -5.637e-7, 1.485e-7
-0.624, 1.466e-9, -3.010e-8, -3.156e-8, -7.054e-7, -5.615e-7, 1.439e-7
-0.625, 1.710e-9, -2.717e-8, -2.888e-8, -7.132e-7, -5.735e-7, 1.397e-7
-0.626, 1.466e-9, -2.668e-8, -2.814e-8, -7.174e-7, -5.701e-7, 1.473e-7
-0.627, 5.619e-9, -2.448e-8, -3.010e-8, -7.191e-7, -5.752e-7, 1.439e-7
-0.628, -5.130e-9, -3.083e-8, -2.570e-8, -7.154e-7, -5.745e-7, 1.409e-7
-0.629, -6.108e-9, -3.156e-8, -2.546e-8, -7.269e-7, -5.806e-7, 1.463e-7
-0.630, -2.687e-9, -3.181e-8, -2.912e-8, -7.301e-7, -5.857e-7, 1.444e-7
-0.631, 6.840e-9, -2.106e-8, -2.790e-8, -7.340e-7, -5.896e-7, 1.444e-7
-0.632, 7.329e-10, -3.107e-8, -3.181e-8, -7.423e-7, -5.948e-7, 1.475e-7
-0.633, 2.932e-9, -2.814e-8, -3.107e-8, -7.357e-7, -5.962e-7, 1.395e-7
-0.634, 3.176e-9, -2.668e-8, -2.985e-8, -7.408e-7, -5.979e-7, 1.429e-7
-0.635, 2.687e-9, -3.083e-8, -3.352e-8, -7.526e-7, -6.067e-7, 1.458e-7
-0.636, -2.199e-9, -2.985e-8, -2.765e-8, -7.440e-7, -6.065e-7, 1.375e-7
-0.637, -3.176e-9, -3.303e-8, -2.985e-8, -7.491e-7, -6.121e-7, 1.370e-7
-0.638, -7.329e-10, -2.912e-8, -2.839e-8, -7.477e-7, -6.136e-7, 1.341e-7
-0.639, 2.443e-10, -2.790e-8, -2.814e-8, -7.518e-7, -6.207e-7, 1.312e-7
-0.640, 2.687e-9, -2.863e-8, -3.132e-8, -7.616e-7, -6.212e-7, 1.404e-7
-0.641, 2.932e-9, -2.936e-8, -3.230e-8, -7.601e-7, -6.277e-7, 1.324e-7
-0.642, -7.329e-10, -2.839e-8, -2.765e-8, -7.618e-7, -6.309e-7, 1.309e-7
-0.643, -6.840e-9, -3.352e-8, -2.668e-8, -7.704e-7, -6.385e-7, 1.319e-7
-0.644, -3.176e-9, -3.254e-8, -2.936e-8, -7.777e-7, -6.434e-7, 1.343e-7
-0.645, 1.954e-9, -2.668e-8, -2.863e-8, -7.885e-7, -6.490e-7, 1.395e-7
-0.646, -3.176e-9, -3.083e-8, -2.765e-8, -7.885e-7, -6.566e-7, 1.319e-7
-0.647, 2.932e-9, -2.790e-8, -3.083e-8, -7.853e-7, -6.541e-7, 1.312e-7
-0.648, -9.772e-10, -2.936e-8, -2.839e-8, -7.826e-7, -6.600e-7, 1.226e-7
-0.649, 3.909e-9, -2.375e-8, -2.765e-8, -8.063e-7, -6.698e-7, 1.365e-7
-0.650, 1.222e-9, -2.643e-8, -2.765e-8, -8.070e-7, -6.727e-7, 1.343e-7
-0.651, -6.108e-9, -3.156e-8, -2.546e-8, -7.956e-7, -6.693e-7, 1.263e-7
-0.652, 3.909e-9, -2.863e-8, -3.254e-8, -8.107e-7, -6.815e-7, 1.292e-7
-0.653, 1.710e-9, -3.059e-8, -3.230e-8, -8.102e-7, -6.817e-7, 1.285e-7
-0.654, -1.954e-9, -2.570e-8, -2.375e-8, -8.110e-7, -6.842e-7, 1.268e-7
-0.655, -1.222e-9, -2.912e-8, -2.790e-8, -8.259e-7, -6.996e-7, 1.263e-7
-0.656, -4.886e-9, -2.985e-8, -2.497e-8, -8.198e-7, -6.971e-7, 1.226e-7
-0.657, -2.443e-9, -3.083e-8, -2.839e-8, -8.298e-7, -7.076e-7, 1.221e-7
-0.658, 0.000e+0, -2.985e-8, -2.985e-8, -8.356e-7, -7.130e-7, 1.226e-7
-0.659, -6.352e-9, -3.059e-8, -2.423e-8, -8.442e-7, -7.235e-7, 1.207e-7
-0.660, -2.687e-9, -3.034e-8, -2.765e-8, -8.505e-7, -7.289e-7, 1.216e-7
-0.661, 6.108e-9, -2.668e-8, -3.278e-8, -8.437e-7, -7.299e-7, 1.138e-7
-0.662, 9.772e-10, -2.692e-8, -2.790e-8, -8.576e-7, -7.384e-7, 1.192e-7
-0.663, -9.772e-10, -2.717e-8, -2.619e-8, -8.623e-7, -7.477e-7, 1.145e-7
-0.664, 3.176e-9, -2.863e-8, -3.181e-8, -8.706e-7, -7.568e-7, 1.138e-7
-0.665, 4.886e-10, -2.814e-8, -2.863e-8, -8.789e-7, -7.648e-7, 1.141e-7
-0.666, 1.710e-9, -2.961e-8, -3.132e-8, -8.835e-7, -7.739e-7, 1.097e-7
-0.667, 3.909e-9, -2.985e-8, -3.376e-8, -8.816e-7, -7.726e-7, 1.089e-7
-0.668, -1.222e-9, -2.692e-8, -2.570e-8, -8.913e-7, -7.829e-7, 1.084e-7
-0.669, 2.199e-9, -2.888e-8, -3.107e-8, -9.060e-7, -7.973e-7, 1.087e-7
-0.670, 1.222e-9, -2.888e-8, -3.010e-8, -9.099e-7, -8.003e-7, 1.097e-7
-0.671, 1.710e-9, -2.961e-8, -3.132e-8, -9.177e-7, -8.112e-7, 1.065e-7
-0.672, -5.130e-9, -3.132e-8, -2.619e-8, -9.136e-7, -8.095e-7, 1.040e-7
-0.673, 9.772e-10, -2.594e-8, -2.692e-8, -9.248e-7, -8.205e-7, 1.043e-7
-0.674, -3.176e-9, -3.132e-8, -2.814e-8, -9.297e-7, -8.310e-7, 9.867e-8
-0.675, 2.443e-9, -3.352e-8, -3.596e-8, -9.368e-7, -8.433e-7, 9.354e-8
-0.676, -2.687e-9, -2.692e-8, -2.423e-8, -9.341e-7, -8.437e-7, 9.036e-8
-0.677, 1.710e-9, -2.741e-8, -2.912e-8, -9.563e-7, -8.623e-7, 9.403e-8
-0.678, -1.710e-9, -2.985e-8, -2.814e-8, -9.444e-7, -8.569e-7, 8.743e-8
-0.679, -2.199e-9, -2.961e-8, -2.741e-8, -9.610e-7, -8.736e-7, 8.743e-8
-0.680, 4.642e-9, -2.546e-8, -3.010e-8, -9.761e-7, -8.958e-7, 8.034e-8
-0.681, 5.619e-9, -2.717e-8, -3.278e-8, -9.783e-7, -8.968e-7, 8.156e-8
-0.682, -4.886e-10, -2.790e-8, -2.741e-8, -9.937e-7, -9.144e-7, 7.937e-8
-0.683, -9.772e-10, -3.010e-8, -2.912e-8, -9.949e-7, -9.212e-7, 7.375e-8
-0.684, 3.665e-9, -2.570e-8, -2.936e-8, -1.004e-6, -9.276e-7, 7.692e-8
-0.685, -7.329e-10, -2.936e-8, -2.863e-8, -1.025e-6, -9.464e-7, 7.863e-8
-0.686, -1.710e-9, -2.888e-8, -2.717e-8, -1.021e-6, -9.549e-7, 6.642e-8
-0.687, 4.397e-9, -2.692e-8, -3.132e-8, -1.030e-6, -9.664e-7, 6.348e-8
-0.688, 6.352e-9, -2.619e-8, -3.254e-8, -1.042e-6, -9.781e-7, 6.422e-8
-0.689, -3.420e-9, -3.181e-8, -2.839e-8, -1.042e-6, -9.874e-7, 5.469e-8
-0.690, 3.420e-9, -2.692e-8, -3.034e-8, -1.056e-6, -1.002e-6, 5.420e-8
-0.691, -1.710e-9, -2.765e-8, -2.594e-8, -1.058e-6, -1.015e-6, 4.369e-8
-0.692, -4.886e-10, -3.230e-8, -3.181e-8, -1.075e-6, -1.031e-6, 4.369e-8
-0.693, 4.886e-10, -2.936e-8, -2.985e-8, -1.084e-6, -1.046e-6, 3.832e-8
-0.694, 1.710e-9, -2.985e-8, -3.156e-8, -1.099e-6, -1.060e-6, 3.856e-8
-0.695, 3.909e-9, -2.472e-8, -2.863e-8, -1.105e-6, -1.076e-6, 2.903e-8
-0.696, -4.886e-10, -2.814e-8, -2.765e-8, -1.115e-6, -1.092e-6, 2.219e-8
-0.697, -4.886e-10, -3.156e-8, -3.107e-8, -1.122e-6, -1.099e-6, 2.243e-8
-0.698, 2.443e-9, -2.643e-8, -2.888e-8, -1.137e-6, -1.120e-6, 1.633e-8
-0.699, 2.199e-9, -2.448e-8, -2.668e-8, -1.141e-6, -1.135e-6, 5.820e-9
-0.700, 3.176e-9, -2.765e-8, -3.083e-8, -1.162e-6, -1.154e-6, 8.019e-9
