Nov. 3, 2022   13:47:46
Square Wave Voltammetry
File: c:\users\fatemeh\onedrive - university of waterloo\ideation lab\experiments\antibiotic detection\vancomycin sensing (mahmoud's project)\vancomycin animal experiments\nov3.22\nov3.22\e#2\in animal\25 min\nov3, e#2, 25 min, m4, text file.txt
Data Source:  Experiment
Instrument Model:  CHI1040C
Data Proc:  Smoothing
Header: 
Note: 

Init E (V) = 0.2
Final E (V) = -0.7
Incr E (V) = 0.001
Amplitude (V) = 0.025
Frequency (Hz) = 100
Quiet Time (sec) = 20
Sensitivity (A/V) = 1e-4

E3 Scan On
Sens 3 = 1e-006

Results:

Channel 1:
Difference:

Forward:
Ep = -0.363V
ip = -1.278e-9A
Ah = -3.476e-11VA

Reverse:

Channel 3:
Difference:

Forward:

Reverse:

Potential/V, i1d/A, i1f/A, i1r/A, i3d/A, i3f/A, i3r/A

0.199, -6.330e-10, -3.711e-8, -3.648e-8, -1.235e-6, 6.545e-7, 1.890e-6
0.198, -5.633e-10, -3.706e-8, -3.649e-8, -1.221e-6, 6.408e-7, 1.862e-6
0.197, -4.966e-10, -3.700e-8, -3.651e-8, -1.207e-6, 6.274e-7, 1.835e-6
0.196, -4.328e-10, -3.695e-8, -3.652e-8, -1.194e-6, 6.141e-7, 1.808e-6
0.195, -3.718e-10, -3.691e-8, -3.654e-8, -1.180e-6, 6.011e-7, 1.781e-6
0.194, -3.138e-10, -3.686e-8, -3.655e-8, -1.167e-6, 5.883e-7, 1.755e-6
0.193, -2.586e-10, -3.682e-8, -3.656e-8, -1.154e-6, 5.757e-7, 1.730e-6
0.192, -2.064e-10, -3.678e-8, -3.657e-8, -1.141e-6, 5.634e-7, 1.705e-6
0.191, -1.570e-10, -3.674e-8, -3.659e-8, -1.129e-6, 5.513e-7, 1.680e-6
0.190, -1.105e-10, -3.671e-8, -3.660e-8, -1.116e-6, 5.394e-7, 1.656e-6
0.189, -6.696e-11, -3.667e-8, -3.661e-8, -1.104e-6, 5.277e-7, 1.632e-6
0.188, -2.629e-11, -3.664e-8, -3.662e-8, -1.092e-6, 5.162e-7, 1.608e-6
0.187, 1.150e-11, -3.662e-8, -3.663e-8, -1.081e-6, 5.050e-7, 1.586e-6
0.186, 4.638e-11, -3.659e-8, -3.664e-8, -1.069e-6, 4.940e-7, 1.563e-6
0.185, 7.838e-11, -3.657e-8, -3.664e-8, -1.058e-6, 4.832e-7, 1.541e-6
0.184, 1.075e-10, -3.654e-8, -3.665e-8, -1.047e-6, 4.727e-7, 1.519e-6
0.183, 1.337e-10, -3.653e-8, -3.666e-8, -1.036e-6, 4.623e-7, 1.498e-6
0.182, 1.570e-10, -3.651e-8, -3.667e-8, -1.025e-6, 4.522e-7, 1.477e-6
0.181, 1.774e-10, -3.650e-8, -3.667e-8, -1.015e-6, 4.423e-7, 1.457e-6
0.180, 1.949e-10, -3.648e-8, -3.668e-8, -1.005e-6, 4.327e-7, 1.437e-6
0.179, 2.095e-10, -3.647e-8, -3.668e-8, -9.946e-7, 4.232e-7, 1.418e-6
0.178, 2.213e-10, -3.647e-8, -3.669e-8, -9.849e-7, 4.140e-7, 1.399e-6
0.177, 2.301e-10, -3.646e-8, -3.669e-8, -9.753e-7, 4.050e-7, 1.380e-6
0.176, 2.360e-10, -3.646e-8, -3.670e-8, -9.660e-7, 3.963e-7, 1.362e-6
0.175, 2.391e-10, -3.646e-8, -3.670e-8, -9.568e-7, 3.877e-7, 1.345e-6
0.174, 2.044e-10, -3.649e-8, -3.670e-8, -9.481e-7, 3.799e-7, 1.328e-6
0.173, 1.714e-10, -3.652e-8, -3.669e-8, -9.395e-7, 3.722e-7, 1.312e-6
0.172, 1.374e-10, -3.656e-8, -3.670e-8, -9.312e-7, 3.648e-7, 1.296e-6
0.171, 1.050e-10, -3.659e-8, -3.670e-8, -9.231e-7, 3.576e-7, 1.281e-6
0.170, 7.377e-11, -3.663e-8, -3.670e-8, -9.152e-7, 3.505e-7, 1.266e-6
0.169, 4.159e-11, -3.667e-8, -3.671e-8, -9.075e-7, 3.437e-7, 1.251e-6
0.168, 6.437e-12, -3.670e-8, -3.671e-8, -9.000e-7, 3.371e-7, 1.237e-6
0.167, -3.568e-11, -3.674e-8, -3.670e-8, -8.927e-7, 3.307e-7, 1.223e-6
0.166, -7.381e-11, -3.677e-8, -3.669e-8, -8.855e-7, 3.244e-7, 1.210e-6
0.165, -1.099e-10, -3.680e-8, -3.669e-8, -8.786e-7, 3.182e-7, 1.197e-6
0.164, -1.431e-10, -3.682e-8, -3.668e-8, -8.718e-7, 3.122e-7, 1.184e-6
0.163, -1.700e-10, -3.684e-8, -3.667e-8, -8.653e-7, 3.064e-7, 1.172e-6
0.162, -1.860e-10, -3.685e-8, -3.666e-8, -8.589e-7, 3.006e-7, 1.159e-6
0.161, -1.921e-10, -3.685e-8, -3.666e-8, -8.526e-7, 2.950e-7, 1.148e-6
0.160, -1.929e-10, -3.685e-8, -3.665e-8, -8.466e-7, 2.894e-7, 1.136e-6
0.159, -1.919e-10, -3.684e-8, -3.665e-8, -8.406e-7, 2.839e-7, 1.125e-6
0.158, -1.735e-10, -3.682e-8, -3.665e-8, -8.349e-7, 2.785e-7, 1.113e-6
0.157, -1.477e-10, -3.680e-8, -3.665e-8, -8.292e-7, 2.732e-7, 1.102e-6
0.156, -1.196e-10, -3.677e-8, -3.665e-8, -8.237e-7, 2.679e-7, 1.092e-6
0.155, -8.869e-11, -3.673e-8, -3.665e-8, -8.184e-7, 2.627e-7, 1.081e-6
0.154, -4.345e-11, -3.669e-8, -3.665e-8, -8.131e-7, 2.575e-7, 1.071e-6
0.153, 1.215e-11, -3.664e-8, -3.665e-8, -8.080e-7, 2.523e-7, 1.060e-6
0.152, 7.854e-11, -3.658e-8, -3.666e-8, -8.030e-7, 2.472e-7, 1.050e-6
0.151, 1.528e-10, -3.651e-8, -3.667e-8, -7.981e-7, 2.420e-7, 1.040e-6
0.150, 2.217e-10, -3.645e-8, -3.667e-8, -7.933e-7, 2.369e-7, 1.030e-6
0.149, 2.937e-10, -3.638e-8, -3.668e-8, -7.886e-7, 2.319e-7, 1.021e-6
0.148, 3.645e-10, -3.632e-8, -3.669e-8, -7.840e-7, 2.270e-7, 1.011e-6
0.147, 4.331e-10, -3.626e-8, -3.670e-8, -7.795e-7, 2.221e-7, 1.002e-6
0.146, 5.025e-10, -3.620e-8, -3.670e-8, -7.751e-7, 2.173e-7, 9.924e-7
0.145, 5.575e-10, -3.615e-8, -3.671e-8, -7.708e-7, 2.126e-7, 9.834e-7
0.144, 6.072e-10, -3.611e-8, -3.671e-8, -7.666e-7, 2.079e-7, 9.745e-7
0.143, 6.570e-10, -3.606e-8, -3.672e-8, -7.625e-7, 2.033e-7, 9.658e-7
0.142, 6.980e-10, -3.602e-8, -3.672e-8, -7.585e-7, 1.987e-7, 9.572e-7
0.141, 7.374e-10, -3.597e-8, -3.671e-8, -7.546e-7, 1.942e-7, 9.488e-7
0.140, 7.636e-10, -3.594e-8, -3.670e-8, -7.508e-7, 1.897e-7, 9.405e-7
0.139, 7.774e-10, -3.592e-8, -3.670e-8, -7.470e-7, 1.853e-7, 9.323e-7
0.138, 7.841e-10, -3.590e-8, -3.669e-8, -7.434e-7, 1.809e-7, 9.243e-7
0.137, 7.763e-10, -3.590e-8, -3.668e-8, -7.398e-7, 1.766e-7, 9.164e-7
0.136, 7.756e-10, -3.590e-8, -3.667e-8, -7.364e-7, 1.723e-7, 9.087e-7
0.135, 7.711e-10, -3.589e-8, -3.667e-8, -7.330e-7, 1.681e-7, 9.010e-7
0.134, 7.604e-10, -3.590e-8, -3.666e-8, -7.297e-7, 1.638e-7, 8.935e-7
0.133, 7.490e-10, -3.590e-8, -3.665e-8, -7.265e-7, 1.597e-7, 8.862e-7
0.132, 7.179e-10, -3.591e-8, -3.663e-8, -7.234e-7, 1.556e-7, 8.789e-7
0.131, 6.678e-10, -3.593e-8, -3.659e-8, -7.203e-7, 1.515e-7, 8.718e-7
0.130, 6.153e-10, -3.594e-8, -3.656e-8, -7.173e-7, 1.474e-7, 8.648e-7
0.129, 5.467e-10, -3.597e-8, -3.652e-8, -7.145e-7, 1.435e-7, 8.579e-7
0.128, 4.812e-10, -3.599e-8, -3.647e-8, -7.116e-7, 1.395e-7, 8.512e-7
0.127, 4.156e-10, -3.601e-8, -3.643e-8, -7.089e-7, 1.356e-7, 8.445e-7
0.126, 3.493e-10, -3.604e-8, -3.639e-8, -7.062e-7, 1.318e-7, 8.380e-7
0.125, 2.902e-10, -3.606e-8, -3.635e-8, -7.036e-7, 1.280e-7, 8.316e-7
0.124, 2.216e-10, -3.609e-8, -3.631e-8, -7.010e-7, 1.243e-7, 8.253e-7
0.123, 1.548e-10, -3.612e-8, -3.627e-8, -6.985e-7, 1.206e-7, 8.191e-7
0.122, 7.415e-11, -3.614e-8, -3.622e-8, -6.960e-7, 1.170e-7, 8.130e-7
0.121, -1.556e-11, -3.617e-8, -3.616e-8, -6.936e-7, 1.134e-7, 8.070e-7
0.120, -1.071e-10, -3.620e-8, -3.609e-8, -6.913e-7, 1.098e-7, 8.011e-7
0.119, -1.921e-10, -3.621e-8, -3.602e-8, -6.890e-7, 1.063e-7, 7.954e-7
0.118, -2.639e-10, -3.622e-8, -3.596e-8, -6.868e-7, 1.029e-7, 7.897e-7
0.117, -3.286e-10, -3.622e-8, -3.589e-8, -6.847e-7, 9.943e-8, 7.841e-7
0.116, -3.792e-10, -3.622e-8, -3.584e-8, -6.826e-7, 9.602e-8, 7.786e-7
0.115, -4.152e-10, -3.621e-8, -3.579e-8, -6.806e-7, 9.265e-8, 7.732e-7
0.114, -4.337e-10, -3.619e-8, -3.575e-8, -6.786e-7, 8.930e-8, 7.679e-7
0.113, -4.458e-10, -3.616e-8, -3.572e-8, -6.767e-7, 8.599e-8, 7.627e-7
0.112, -4.589e-10, -3.614e-8, -3.568e-8, -6.748e-7, 8.271e-8, 7.575e-7
0.111, -4.582e-10, -3.612e-8, -3.566e-8, -6.729e-7, 7.946e-8, 7.524e-7
0.110, -4.404e-10, -3.609e-8, -3.565e-8, -6.711e-7, 7.623e-8, 7.473e-7
0.109, -4.343e-10, -3.606e-8, -3.563e-8, -6.694e-7, 7.300e-8, 7.424e-7
0.108, -4.200e-10, -3.603e-8, -3.561e-8, -6.677e-7, 6.980e-8, 7.375e-7
0.107, -3.886e-10, -3.599e-8, -3.560e-8, -6.660e-7, 6.662e-8, 7.326e-7
0.106, -3.485e-10, -3.595e-8, -3.560e-8, -6.644e-7, 6.345e-8, 7.279e-7
0.105, -3.148e-10, -3.592e-8, -3.560e-8, -6.629e-7, 6.030e-8, 7.232e-7
0.104, -2.757e-10, -3.589e-8, -3.561e-8, -6.614e-7, 5.716e-8, 7.185e-7
0.103, -2.355e-10, -3.586e-8, -3.562e-8, -6.600e-7, 5.403e-8, 7.140e-7
0.102, -1.978e-10, -3.584e-8, -3.564e-8, -6.586e-7, 5.093e-8, 7.095e-7
0.101, -1.429e-10, -3.581e-8, -3.567e-8, -6.572e-7, 4.786e-8, 7.051e-7
0.100, -9.178e-11, -3.579e-8, -3.570e-8, -6.559e-7, 4.482e-8, 7.007e-7
0.099, -3.952e-11, -3.578e-8, -3.574e-8, -6.546e-7, 4.178e-8, 6.964e-7
0.098, 9.854e-12, -3.577e-8, -3.578e-8, -6.534e-7, 3.875e-8, 6.922e-7
0.097, 5.667e-11, -3.576e-8, -3.582e-8, -6.522e-7, 3.575e-8, 6.879e-7
0.096, 1.108e-10, -3.576e-8, -3.587e-8, -6.510e-7, 3.275e-8, 6.838e-7
0.095, 1.645e-10, -3.575e-8, -3.592e-8, -6.499e-7, 2.978e-8, 6.797e-7
0.094, 2.145e-10, -3.575e-8, -3.597e-8, -6.487e-7, 2.684e-8, 6.756e-7
0.093, 2.615e-10, -3.576e-8, -3.602e-8, -6.476e-7, 2.389e-8, 6.715e-7
0.092, 3.004e-10, -3.577e-8, -3.607e-8, -6.466e-7, 2.097e-8, 6.675e-7
0.091, 3.302e-10, -3.579e-8, -3.612e-8, -6.455e-7, 1.806e-8, 6.635e-7
0.090, 3.539e-10, -3.581e-8, -3.617e-8, -6.445e-7, 1.516e-8, 6.596e-7
0.089, 3.742e-10, -3.584e-8, -3.621e-8, -6.435e-7, 1.227e-8, 6.558e-7
0.088, 3.972e-10, -3.586e-8, -3.626e-8, -6.425e-7, 9.395e-9, 6.519e-7
0.087, 4.119e-10, -3.589e-8, -3.630e-8, -6.416e-7, 6.543e-9, 6.481e-7
0.086, 4.242e-10, -3.592e-8, -3.635e-8, -6.406e-7, 3.696e-9, 6.443e-7
0.085, 4.369e-10, -3.595e-8, -3.639e-8, -6.397e-7, 8.764e-10, 6.406e-7
0.084, 4.430e-10, -3.598e-8, -3.643e-8, -6.388e-7, -1.922e-9, 6.369e-7
0.083, 4.553e-10, -3.601e-8, -3.646e-8, -6.380e-7, -4.707e-9, 6.333e-7
0.082, 4.761e-10, -3.603e-8, -3.651e-8, -6.372e-7, -7.483e-9, 6.297e-7
0.081, 4.911e-10, -3.605e-8, -3.654e-8, -6.364e-7, -1.025e-8, 6.261e-7
0.080, 5.173e-10, -3.606e-8, -3.658e-8, -6.357e-7, -1.302e-8, 6.226e-7
0.079, 5.355e-10, -3.608e-8, -3.662e-8, -6.350e-7, -1.578e-8, 6.192e-7
0.078, 5.502e-10, -3.611e-8, -3.666e-8, -6.343e-7, -1.852e-8, 6.158e-7
0.077, 5.519e-10, -3.614e-8, -3.669e-8, -6.337e-7, -2.122e-8, 6.125e-7
0.076, 5.419e-10, -3.616e-8, -3.670e-8, -6.331e-7, -2.393e-8, 6.092e-7
0.075, 5.303e-10, -3.618e-8, -3.671e-8, -6.326e-7, -2.661e-8, 6.060e-7
0.074, 5.078e-10, -3.621e-8, -3.671e-8, -6.321e-7, -2.928e-8, 6.028e-7
0.073, 4.982e-10, -3.621e-8, -3.671e-8, -6.317e-7, -3.195e-8, 5.997e-7
0.072, 4.910e-10, -3.622e-8, -3.671e-8, -6.313e-7, -3.461e-8, 5.967e-7
0.071, 4.884e-10, -3.622e-8, -3.671e-8, -6.309e-7, -3.727e-8, 5.937e-7
0.070, 4.843e-10, -3.622e-8, -3.671e-8, -6.306e-7, -3.993e-8, 5.907e-7
0.069, 4.866e-10, -3.622e-8, -3.671e-8, -6.304e-7, -4.260e-8, 5.878e-7
0.068, 4.898e-10, -3.622e-8, -3.671e-8, -6.302e-7, -4.526e-8, 5.849e-7
0.067, 4.884e-10, -3.621e-8, -3.670e-8, -6.300e-7, -4.793e-8, 5.821e-7
0.066, 4.826e-10, -3.621e-8, -3.669e-8, -6.299e-7, -5.061e-8, 5.793e-7
0.065, 4.592e-10, -3.621e-8, -3.667e-8, -6.298e-7, -5.327e-8, 5.765e-7
0.064, 4.240e-10, -3.622e-8, -3.664e-8, -6.298e-7, -5.595e-8, 5.739e-7
0.063, 3.929e-10, -3.622e-8, -3.661e-8, -6.298e-7, -5.864e-8, 5.712e-7
0.062, 3.504e-10, -3.622e-8, -3.657e-8, -6.299e-7, -6.134e-8, 5.686e-7
0.061, 2.981e-10, -3.621e-8, -3.651e-8, -6.301e-7, -6.406e-8, 5.660e-7
0.060, 2.555e-10, -3.620e-8, -3.646e-8, -6.303e-7, -6.678e-8, 5.635e-7
0.059, 2.065e-10, -3.619e-8, -3.639e-8, -6.306e-7, -6.951e-8, 5.611e-7
0.058, 1.449e-10, -3.618e-8, -3.633e-8, -6.309e-7, -7.225e-8, 5.587e-7
0.057, 8.993e-11, -3.618e-8, -3.627e-8, -6.313e-7, -7.499e-8, 5.563e-7
0.056, 4.575e-11, -3.616e-8, -3.620e-8, -6.318e-7, -7.774e-8, 5.540e-7
0.055, -1.036e-12, -3.614e-8, -3.614e-8, -6.323e-7, -8.048e-8, 5.518e-7
0.054, -5.670e-11, -3.613e-8, -3.607e-8, -6.328e-7, -8.322e-8, 5.496e-7
0.053, -1.154e-10, -3.611e-8, -3.599e-8, -6.333e-7, -8.597e-8, 5.474e-7
0.052, -1.854e-10, -3.610e-8, -3.592e-8, -6.340e-7, -8.873e-8, 5.452e-7
0.051, -2.571e-10, -3.609e-8, -3.584e-8, -6.347e-7, -9.152e-8, 5.432e-7
0.050, -3.311e-10, -3.609e-8, -3.575e-8, -6.354e-7, -9.432e-8, 5.411e-7
0.049, -4.055e-10, -3.608e-8, -3.568e-8, -6.361e-7, -9.712e-8, 5.390e-7
0.048, -4.814e-10, -3.609e-8, -3.560e-8, -6.370e-7, -9.993e-8, 5.370e-7
0.047, -5.653e-10, -3.609e-8, -3.553e-8, -6.378e-7, -1.028e-7, 5.350e-7
0.046, -6.516e-10, -3.611e-8, -3.546e-8, -6.387e-7, -1.056e-7, 5.331e-7
0.045, -7.347e-10, -3.613e-8, -3.540e-8, -6.397e-7, -1.085e-7, 5.312e-7
0.044, -8.103e-10, -3.616e-8, -3.535e-8, -6.406e-7, -1.113e-7, 5.293e-7
0.043, -8.858e-10, -3.619e-8, -3.530e-8, -6.417e-7, -1.142e-7, 5.275e-7
0.042, -9.516e-10, -3.622e-8, -3.527e-8, -6.428e-7, -1.171e-7, 5.257e-7
0.041, -1.000e-9, -3.625e-8, -3.525e-8, -6.439e-7, -1.200e-7, 5.239e-7
0.040, -1.046e-9, -3.628e-8, -3.524e-8, -6.451e-7, -1.229e-7, 5.221e-7
0.039, -1.080e-9, -3.632e-8, -3.524e-8, -6.463e-7, -1.258e-7, 5.204e-7
0.038, -1.093e-9, -3.635e-8, -3.526e-8, -6.475e-7, -1.288e-7, 5.187e-7
0.037, -1.092e-9, -3.637e-8, -3.528e-8, -6.488e-7, -1.317e-7, 5.171e-7
0.036, -1.088e-9, -3.640e-8, -3.531e-8, -6.502e-7, -1.347e-7, 5.154e-7
0.035, -1.084e-9, -3.643e-8, -3.534e-8, -6.516e-7, -1.377e-7, 5.139e-7
0.034, -1.072e-9, -3.646e-8, -3.538e-8, -6.530e-7, -1.407e-7, 5.123e-7
0.033, -1.054e-9, -3.649e-8, -3.543e-8, -6.545e-7, -1.437e-7, 5.108e-7
0.032, -1.015e-9, -3.652e-8, -3.550e-8, -6.560e-7, -1.467e-7, 5.094e-7
0.031, -9.880e-10, -3.655e-8, -3.557e-8, -6.576e-7, -1.497e-7, 5.080e-7
0.030, -9.517e-10, -3.658e-8, -3.563e-8, -6.593e-7, -1.527e-7, 5.066e-7
0.029, -9.171e-10, -3.661e-8, -3.569e-8, -6.610e-7, -1.557e-7, 5.052e-7
0.028, -8.863e-10, -3.665e-8, -3.576e-8, -6.627e-7, -1.588e-7, 5.039e-7
0.027, -8.481e-10, -3.669e-8, -3.584e-8, -6.645e-7, -1.618e-7, 5.026e-7
0.026, -8.031e-10, -3.672e-8, -3.592e-8, -6.663e-7, -1.649e-7, 5.014e-7
0.025, -7.566e-10, -3.675e-8, -3.600e-8, -6.681e-7, -1.680e-7, 5.001e-7
0.024, -7.213e-10, -3.680e-8, -3.608e-8, -6.700e-7, -1.712e-7, 4.989e-7
0.023, -6.874e-10, -3.684e-8, -3.615e-8, -6.719e-7, -1.743e-7, 4.977e-7
0.022, -6.550e-10, -3.687e-8, -3.622e-8, -6.739e-7, -1.774e-7, 4.965e-7
0.021, -6.286e-10, -3.691e-8, -3.628e-8, -6.758e-7, -1.805e-7, 4.953e-7
0.020, -6.142e-10, -3.694e-8, -3.633e-8, -6.777e-7, -1.836e-7, 4.941e-7
0.019, -6.062e-10, -3.698e-8, -3.637e-8, -6.797e-7, -1.867e-7, 4.930e-7
0.018, -6.003e-10, -3.701e-8, -3.640e-8, -6.817e-7, -1.898e-7, 4.919e-7
0.017, -5.988e-10, -3.702e-8, -3.642e-8, -6.837e-7, -1.929e-7, 4.908e-7
0.016, -5.911e-10, -3.703e-8, -3.644e-8, -6.857e-7, -1.960e-7, 4.897e-7
0.015, -5.803e-10, -3.704e-8, -3.646e-8, -6.878e-7, -1.991e-7, 4.887e-7
0.014, -5.746e-10, -3.704e-8, -3.646e-8, -6.898e-7, -2.021e-7, 4.877e-7
0.013, -5.739e-10, -3.703e-8, -3.645e-8, -6.918e-7, -2.051e-7, 4.867e-7
0.012, -5.724e-10, -3.701e-8, -3.644e-8, -6.939e-7, -2.082e-7, 4.857e-7
0.011, -5.794e-10, -3.700e-8, -3.642e-8, -6.960e-7, -2.112e-7, 4.848e-7
0.010, -5.907e-10, -3.698e-8, -3.639e-8, -6.981e-7, -2.142e-7, 4.839e-7
0.009, -6.033e-10, -3.696e-8, -3.635e-8, -7.003e-7, -2.173e-7, 4.830e-7
0.008, -6.277e-10, -3.693e-8, -3.630e-8, -7.024e-7, -2.203e-7, 4.821e-7
0.007, -6.653e-10, -3.691e-8, -3.625e-8, -7.045e-7, -2.233e-7, 4.812e-7
0.006, -7.085e-10, -3.690e-8, -3.619e-8, -7.066e-7, -2.263e-7, 4.803e-7
0.005, -7.566e-10, -3.688e-8, -3.613e-8, -7.088e-7, -2.293e-7, 4.795e-7
0.004, -8.071e-10, -3.687e-8, -3.606e-8, -7.109e-7, -2.323e-7, 4.786e-7
0.003, -8.694e-10, -3.685e-8, -3.598e-8, -7.130e-7, -2.352e-7, 4.778e-7
0.002, -9.425e-10, -3.684e-8, -3.590e-8, -7.152e-7, -2.382e-7, 4.770e-7
0.001, -1.024e-9, -3.685e-8, -3.582e-8, -7.174e-7, -2.413e-7, 4.762e-7
-0.000, -1.100e-9, -3.685e-8, -3.575e-8, -7.197e-7, -2.443e-7, 4.754e-7
-0.001, -1.171e-9, -3.685e-8, -3.568e-8, -7.221e-7, -2.474e-7, 4.746e-7
-0.002, -1.225e-9, -3.685e-8, -3.562e-8, -7.244e-7, -2.505e-7, 4.739e-7
-0.003, -1.265e-9, -3.684e-8, -3.558e-8, -7.269e-7, -2.536e-7, 4.733e-7
-0.004, -1.300e-9, -3.683e-8, -3.553e-8, -7.294e-7, -2.568e-7, 4.726e-7
-0.005, -1.325e-9, -3.682e-8, -3.549e-8, -7.320e-7, -2.600e-7, 4.720e-7
-0.006, -1.338e-9, -3.680e-8, -3.547e-8, -7.347e-7, -2.633e-7, 4.714e-7
-0.007, -1.338e-9, -3.679e-8, -3.545e-8, -7.374e-7, -2.666e-7, 4.708e-7
-0.008, -1.334e-9, -3.677e-8, -3.543e-8, -7.402e-7, -2.699e-7, 4.703e-7
-0.009, -1.308e-9, -3.674e-8, -3.543e-8, -7.431e-7, -2.733e-7, 4.698e-7
-0.010, -1.276e-9, -3.671e-8, -3.544e-8, -7.461e-7, -2.767e-7, 4.694e-7
-0.011, -1.258e-9, -3.669e-8, -3.543e-8, -7.492e-7, -2.802e-7, 4.690e-7
-0.012, -1.240e-9, -3.668e-8, -3.544e-8, -7.523e-7, -2.837e-7, 4.687e-7
-0.013, -1.209e-9, -3.666e-8, -3.545e-8, -7.556e-7, -2.873e-7, 4.683e-7
-0.014, -1.167e-9, -3.664e-8, -3.547e-8, -7.589e-7, -2.909e-7, 4.681e-7
-0.015, -1.128e-9, -3.663e-8, -3.550e-8, -7.625e-7, -2.946e-7, 4.679e-7
-0.016, -1.083e-9, -3.661e-8, -3.553e-8, -7.661e-7, -2.984e-7, 4.677e-7
-0.017, -1.051e-9, -3.662e-8, -3.557e-8, -7.698e-7, -3.023e-7, 4.675e-7
-0.018, -1.002e-9, -3.662e-8, -3.562e-8, -7.735e-7, -3.062e-7, 4.674e-7
-0.019, -9.570e-10, -3.663e-8, -3.567e-8, -7.774e-7, -3.101e-7, 4.673e-7
-0.020, -9.160e-10, -3.664e-8, -3.572e-8, -7.813e-7, -3.141e-7, 4.672e-7
-0.021, -8.588e-10, -3.664e-8, -3.578e-8, -7.853e-7, -3.181e-7, 4.672e-7
-0.022, -7.971e-10, -3.664e-8, -3.585e-8, -7.895e-7, -3.223e-7, 4.672e-7
-0.023, -7.346e-10, -3.664e-8, -3.591e-8, -7.936e-7, -3.264e-7, 4.673e-7
-0.024, -6.731e-10, -3.665e-8, -3.598e-8, -7.978e-7, -3.304e-7, 4.674e-7
-0.025, -6.039e-10, -3.665e-8, -3.604e-8, -8.021e-7, -3.346e-7, 4.675e-7
-0.026, -5.225e-10, -3.664e-8, -3.612e-8, -8.064e-7, -3.387e-7, 4.677e-7
-0.027, -4.419e-10, -3.663e-8, -3.619e-8, -8.107e-7, -3.428e-7, 4.679e-7
-0.028, -3.515e-10, -3.662e-8, -3.627e-8, -8.151e-7, -3.470e-7, 4.682e-7
-0.029, -2.513e-10, -3.660e-8, -3.635e-8, -8.196e-7, -3.511e-7, 4.684e-7
-0.030, -1.507e-10, -3.658e-8, -3.643e-8, -8.240e-7, -3.553e-7, 4.687e-7
-0.031, -5.163e-11, -3.656e-8, -3.651e-8, -8.285e-7, -3.595e-7, 4.690e-7
-0.032, 3.878e-11, -3.656e-8, -3.659e-8, -8.330e-7, -3.637e-7, 4.694e-7
-0.033, 1.254e-10, -3.654e-8, -3.667e-8, -8.375e-7, -3.678e-7, 4.697e-7
-0.034, 2.023e-10, -3.653e-8, -3.673e-8, -8.420e-7, -3.720e-7, 4.700e-7
-0.035, 2.594e-10, -3.652e-8, -3.678e-8, -8.466e-7, -3.762e-7, 4.704e-7
-0.036, 3.089e-10, -3.653e-8, -3.684e-8, -8.512e-7, -3.804e-7, 4.708e-7
-0.037, 3.474e-10, -3.653e-8, -3.688e-8, -8.557e-7, -3.846e-7, 4.711e-7
-0.038, 3.795e-10, -3.654e-8, -3.692e-8, -8.602e-7, -3.887e-7, 4.715e-7
-0.039, 4.010e-10, -3.655e-8, -3.695e-8, -8.647e-7, -3.929e-7, 4.717e-7
-0.040, 4.157e-10, -3.656e-8, -3.698e-8, -8.690e-7, -3.970e-7, 4.720e-7
-0.041, 4.185e-10, -3.658e-8, -3.700e-8, -8.734e-7, -4.011e-7, 4.723e-7
-0.042, 4.179e-10, -3.660e-8, -3.701e-8, -8.778e-7, -4.052e-7, 4.726e-7
-0.043, 4.038e-10, -3.662e-8, -3.702e-8, -8.823e-7, -4.093e-7, 4.729e-7
-0.044, 3.802e-10, -3.665e-8, -3.703e-8, -8.867e-7, -4.135e-7, 4.732e-7
-0.045, 3.398e-10, -3.669e-8, -3.703e-8, -8.912e-7, -4.177e-7, 4.735e-7
-0.046, 3.058e-10, -3.674e-8, -3.704e-8, -8.958e-7, -4.220e-7, 4.738e-7
-0.047, 2.810e-10, -3.677e-8, -3.705e-8, -9.004e-7, -4.263e-7, 4.741e-7
-0.048, 2.641e-10, -3.679e-8, -3.706e-8, -9.050e-7, -4.306e-7, 4.744e-7
-0.049, 2.481e-10, -3.682e-8, -3.707e-8, -9.096e-7, -4.349e-7, 4.748e-7
-0.050, 2.246e-10, -3.685e-8, -3.707e-8, -9.144e-7, -4.392e-7, 4.751e-7
-0.051, 2.045e-10, -3.688e-8, -3.708e-8, -9.191e-7, -4.436e-7, 4.755e-7
-0.052, 1.814e-10, -3.690e-8, -3.709e-8, -9.239e-7, -4.481e-7, 4.758e-7
-0.053, 1.610e-10, -3.693e-8, -3.710e-8, -9.288e-7, -4.525e-7, 4.763e-7
-0.054, 1.310e-10, -3.697e-8, -3.710e-8, -9.337e-7, -4.570e-7, 4.767e-7
-0.055, 9.773e-11, -3.700e-8, -3.710e-8, -9.387e-7, -4.616e-7, 4.771e-7
-0.056, 6.019e-11, -3.703e-8, -3.709e-8, -9.438e-7, -4.661e-7, 4.776e-7
-0.057, 1.737e-11, -3.706e-8, -3.708e-8, -9.489e-7, -4.707e-7, 4.782e-7
-0.058, -3.410e-11, -3.710e-8, -3.706e-8, -9.541e-7, -4.754e-7, 4.787e-7
-0.059, -8.489e-11, -3.713e-8, -3.705e-8, -9.594e-7, -4.801e-7, 4.793e-7
-0.060, -1.198e-10, -3.716e-8, -3.704e-8, -9.647e-7, -4.848e-7, 4.799e-7
-0.061, -1.533e-10, -3.719e-8, -3.704e-8, -9.702e-7, -4.896e-7, 4.806e-7
-0.062, -1.849e-10, -3.722e-8, -3.704e-8, -9.757e-7, -4.944e-7, 4.813e-7
-0.063, -2.114e-10, -3.725e-8, -3.704e-8, -9.814e-7, -4.994e-7, 4.820e-7
-0.064, -2.237e-10, -3.727e-8, -3.705e-8, -9.870e-7, -5.042e-7, 4.828e-7
-0.065, -2.317e-10, -3.730e-8, -3.707e-8, -9.928e-7, -5.092e-7, 4.836e-7
-0.066, -2.226e-10, -3.731e-8, -3.708e-8, -9.986e-7, -5.141e-7, 4.845e-7
-0.067, -2.134e-10, -3.731e-8, -3.710e-8, -1.005e-6, -5.191e-7, 4.854e-7
-0.068, -1.994e-10, -3.731e-8, -3.711e-8, -1.011e-6, -5.242e-7, 4.864e-7
-0.069, -1.689e-10, -3.730e-8, -3.713e-8, -1.017e-6, -5.292e-7, 4.874e-7
-0.070, -1.347e-10, -3.729e-8, -3.715e-8, -1.023e-6, -5.343e-7, 4.884e-7
-0.071, -9.464e-11, -3.727e-8, -3.718e-8, -1.029e-6, -5.393e-7, 4.894e-7
-0.072, -5.358e-11, -3.725e-8, -3.720e-8, -1.035e-6, -5.444e-7, 4.905e-7
-0.073, 4.791e-12, -3.722e-8, -3.722e-8, -1.041e-6, -5.496e-7, 4.916e-7
-0.074, 6.342e-11, -3.718e-8, -3.725e-8, -1.047e-6, -5.547e-7, 4.927e-7
-0.075, 1.199e-10, -3.715e-8, -3.727e-8, -1.054e-6, -5.599e-7, 4.939e-7
-0.076, 1.749e-10, -3.712e-8, -3.729e-8, -1.060e-6, -5.650e-7, 4.950e-7
-0.077, 2.238e-10, -3.708e-8, -3.731e-8, -1.066e-6, -5.702e-7, 4.962e-7
-0.078, 2.613e-10, -3.705e-8, -3.731e-8, -1.073e-6, -5.754e-7, 4.973e-7
-0.079, 2.994e-10, -3.701e-8, -3.731e-8, -1.079e-6, -5.806e-7, 4.985e-7
-0.080, 3.327e-10, -3.696e-8, -3.729e-8, -1.085e-6, -5.858e-7, 4.997e-7
-0.081, 3.745e-10, -3.690e-8, -3.728e-8, -1.092e-6, -5.910e-7, 5.008e-7
-0.082, 4.025e-10, -3.686e-8, -3.726e-8, -1.098e-6, -5.962e-7, 5.020e-7
-0.083, 4.235e-10, -3.681e-8, -3.723e-8, -1.105e-6, -6.014e-7, 5.031e-7
-0.084, 4.602e-10, -3.675e-8, -3.721e-8, -1.111e-6, -6.066e-7, 5.042e-7
-0.085, 5.049e-10, -3.669e-8, -3.719e-8, -1.117e-6, -6.118e-7, 5.053e-7
-0.086, 5.432e-10, -3.663e-8, -3.717e-8, -1.123e-6, -6.170e-7, 5.064e-7
-0.087, 5.774e-10, -3.657e-8, -3.714e-8, -1.129e-6, -6.221e-7, 5.074e-7
-0.088, 6.090e-10, -3.651e-8, -3.712e-8, -1.136e-6, -6.272e-7, 5.084e-7
-0.089, 6.352e-10, -3.647e-8, -3.710e-8, -1.142e-6, -6.324e-7, 5.094e-7
-0.090, 6.612e-10, -3.643e-8, -3.709e-8, -1.148e-6, -6.375e-7, 5.104e-7
-0.091, 6.765e-10, -3.639e-8, -3.707e-8, -1.154e-6, -6.427e-7, 5.114e-7
-0.092, 6.841e-10, -3.636e-8, -3.705e-8, -1.160e-6, -6.479e-7, 5.123e-7
-0.093, 6.935e-10, -3.633e-8, -3.703e-8, -1.166e-6, -6.530e-7, 5.132e-7
-0.094, 7.062e-10, -3.629e-8, -3.700e-8, -1.172e-6, -6.581e-7, 5.142e-7
-0.095, 7.064e-10, -3.626e-8, -3.697e-8, -1.178e-6, -6.632e-7, 5.151e-7
-0.096, 7.001e-10, -3.623e-8, -3.693e-8, -1.184e-6, -6.683e-7, 5.160e-7
-0.097, 6.876e-10, -3.622e-8, -3.691e-8, -1.190e-6, -6.734e-7, 5.169e-7
-0.098, 6.629e-10, -3.621e-8, -3.687e-8, -1.196e-6, -6.785e-7, 5.178e-7
-0.099, 6.435e-10, -3.620e-8, -3.684e-8, -1.202e-6, -6.836e-7, 5.188e-7
-0.100, 6.105e-10, -3.620e-8, -3.681e-8, -1.208e-6, -6.886e-7, 5.197e-7
-0.101, 5.665e-10, -3.621e-8, -3.677e-8, -1.214e-6, -6.936e-7, 5.207e-7
-0.102, 5.225e-10, -3.622e-8, -3.674e-8, -1.220e-6, -6.986e-7, 5.217e-7
-0.103, 4.817e-10, -3.623e-8, -3.671e-8, -1.226e-6, -7.036e-7, 5.227e-7
-0.104, 4.409e-10, -3.624e-8, -3.668e-8, -1.232e-6, -7.086e-7, 5.237e-7
-0.105, 3.984e-10, -3.625e-8, -3.665e-8, -1.238e-6, -7.136e-7, 5.247e-7
-0.106, 3.562e-10, -3.627e-8, -3.663e-8, -1.244e-6, -7.187e-7, 5.257e-7
-0.107, 3.060e-10, -3.631e-8, -3.661e-8, -1.250e-6, -7.237e-7, 5.267e-7
-0.108, 2.510e-10, -3.635e-8, -3.660e-8, -1.257e-6, -7.287e-7, 5.278e-7
-0.109, 1.880e-10, -3.640e-8, -3.658e-8, -1.263e-6, -7.337e-7, 5.289e-7
-0.110, 1.359e-10, -3.644e-8, -3.658e-8, -1.269e-6, -7.387e-7, 5.300e-7
-0.111, 7.504e-11, -3.649e-8, -3.656e-8, -1.275e-6, -7.437e-7, 5.311e-7
-0.112, 1.036e-11, -3.654e-8, -3.655e-8, -1.281e-6, -7.487e-7, 5.322e-7
-0.113, -5.000e-11, -3.659e-8, -3.654e-8, -1.287e-6, -7.537e-7, 5.333e-7
-0.114, -1.175e-10, -3.664e-8, -3.652e-8, -1.293e-6, -7.587e-7, 5.345e-7
-0.115, -1.904e-10, -3.669e-8, -3.650e-8, -1.299e-6, -7.637e-7, 5.356e-7
-0.116, -2.658e-10, -3.675e-8, -3.648e-8, -1.306e-6, -7.688e-7, 5.368e-7
-0.117, -3.323e-10, -3.680e-8, -3.647e-8, -1.312e-6, -7.738e-7, 5.379e-7
-0.118, -3.994e-10, -3.685e-8, -3.645e-8, -1.318e-6, -7.788e-7, 5.391e-7
-0.119, -4.704e-10, -3.690e-8, -3.643e-8, -1.324e-6, -7.839e-7, 5.403e-7
-0.120, -5.441e-10, -3.695e-8, -3.640e-8, -1.330e-6, -7.889e-7, 5.414e-7
-0.121, -6.081e-10, -3.699e-8, -3.638e-8, -1.337e-6, -7.939e-7, 5.426e-7
-0.122, -6.779e-10, -3.704e-8, -3.636e-8, -1.343e-6, -7.989e-7, 5.438e-7
-0.123, -7.342e-10, -3.708e-8, -3.634e-8, -1.349e-6, -8.039e-7, 5.450e-7
-0.124, -7.945e-10, -3.711e-8, -3.632e-8, -1.355e-6, -8.089e-7, 5.461e-7
-0.125, -8.439e-10, -3.714e-8, -3.629e-8, -1.361e-6, -8.139e-7, 5.473e-7
-0.126, -8.831e-10, -3.715e-8, -3.627e-8, -1.367e-6, -8.188e-7, 5.485e-7
-0.127, -9.086e-10, -3.716e-8, -3.625e-8, -1.373e-6, -8.238e-7, 5.496e-7
-0.128, -9.328e-10, -3.717e-8, -3.623e-8, -1.379e-6, -8.287e-7, 5.508e-7
-0.129, -9.483e-10, -3.717e-8, -3.622e-8, -1.386e-6, -8.336e-7, 5.519e-7
-0.130, -9.585e-10, -3.717e-8, -3.621e-8, -1.392e-6, -8.385e-7, 5.531e-7
-0.131, -9.503e-10, -3.716e-8, -3.621e-8, -1.397e-6, -8.433e-7, 5.542e-7
-0.132, -9.272e-10, -3.714e-8, -3.621e-8, -1.403e-6, -8.481e-7, 5.553e-7
-0.133, -9.020e-10, -3.712e-8, -3.622e-8, -1.409e-6, -8.529e-7, 5.563e-7
-0.134, -8.810e-10, -3.711e-8, -3.623e-8, -1.415e-6, -8.577e-7, 5.574e-7
-0.135, -8.537e-10, -3.709e-8, -3.624e-8, -1.421e-6, -8.624e-7, 5.585e-7
-0.136, -8.301e-10, -3.708e-8, -3.625e-8, -1.427e-6, -8.671e-7, 5.595e-7
-0.137, -8.041e-10, -3.707e-8, -3.627e-8, -1.432e-6, -8.717e-7, 5.606e-7
-0.138, -7.786e-10, -3.705e-8, -3.628e-8, -1.438e-6, -8.763e-7, 5.616e-7
-0.139, -7.487e-10, -3.703e-8, -3.628e-8, -1.444e-6, -8.809e-7, 5.627e-7
-0.140, -7.041e-10, -3.700e-8, -3.630e-8, -1.449e-6, -8.855e-7, 5.637e-7
-0.141, -6.493e-10, -3.696e-8, -3.631e-8, -1.455e-6, -8.900e-7, 5.647e-7
-0.142, -5.873e-10, -3.692e-8, -3.633e-8, -1.460e-6, -8.944e-7, 5.658e-7
-0.143, -5.231e-10, -3.688e-8, -3.635e-8, -1.466e-6, -8.989e-7, 5.668e-7
-0.144, -4.502e-10, -3.683e-8, -3.638e-8, -1.471e-6, -9.032e-7, 5.678e-7
-0.145, -3.786e-10, -3.678e-8, -3.640e-8, -1.476e-6, -9.076e-7, 5.689e-7
-0.146, -2.978e-10, -3.673e-8, -3.643e-8, -1.482e-6, -9.119e-7, 5.699e-7
-0.147, -2.061e-10, -3.668e-8, -3.648e-8, -1.487e-6, -9.161e-7, 5.709e-7
-0.148, -1.117e-10, -3.663e-8, -3.652e-8, -1.492e-6, -9.204e-7, 5.719e-7
-0.149, -1.151e-11, -3.657e-8, -3.656e-8, -1.497e-6, -9.246e-7, 5.729e-7
-0.150, 1.015e-10, -3.651e-8, -3.661e-8, -1.503e-6, -9.287e-7, 5.739e-7
-0.151, 2.075e-10, -3.644e-8, -3.665e-8, -1.508e-6, -9.329e-7, 5.749e-7
-0.152, 3.027e-10, -3.639e-8, -3.669e-8, -1.513e-6, -9.370e-7, 5.759e-7
-0.153, 3.935e-10, -3.634e-8, -3.673e-8, -1.518e-6, -9.410e-7, 5.769e-7
-0.154, 4.714e-10, -3.630e-8, -3.677e-8, -1.523e-6, -9.451e-7, 5.779e-7
-0.155, 5.435e-10, -3.627e-8, -3.681e-8, -1.528e-6, -9.491e-7, 5.788e-7
-0.156, 6.184e-10, -3.623e-8, -3.685e-8, -1.533e-6, -9.531e-7, 5.798e-7
-0.157, 6.928e-10, -3.620e-8, -3.689e-8, -1.538e-6, -9.570e-7, 5.807e-7
-0.158, 7.681e-10, -3.616e-8, -3.693e-8, -1.543e-6, -9.610e-7, 5.816e-7
-0.159, 8.178e-10, -3.614e-8, -3.695e-8, -1.547e-6, -9.649e-7, 5.824e-7
-0.160, 8.679e-10, -3.611e-8, -3.698e-8, -1.552e-6, -9.688e-7, 5.833e-7
-0.161, 9.134e-10, -3.609e-8, -3.701e-8, -1.557e-6, -9.727e-7, 5.841e-7
-0.162, 9.415e-10, -3.608e-8, -3.702e-8, -1.561e-6, -9.766e-7, 5.849e-7
-0.163, 9.737e-10, -3.606e-8, -3.703e-8, -1.566e-6, -9.804e-7, 5.857e-7
-0.164, 9.858e-10, -3.605e-8, -3.703e-8, -1.571e-6, -9.843e-7, 5.865e-7
-0.165, 9.895e-10, -3.603e-8, -3.702e-8, -1.575e-6, -9.881e-7, 5.873e-7
-0.166, 9.787e-10, -3.603e-8, -3.701e-8, -1.580e-6, -9.919e-7, 5.881e-7
-0.167, 9.604e-10, -3.602e-8, -3.698e-8, -1.585e-6, -9.957e-7, 5.889e-7
-0.168, 9.374e-10, -3.602e-8, -3.695e-8, -1.589e-6, -9.995e-7, 5.896e-7
-0.169, 9.159e-10, -3.602e-8, -3.694e-8, -1.593e-6, -1.003e-6, 5.903e-7
-0.170, 8.861e-10, -3.602e-8, -3.691e-8, -1.598e-6, -1.007e-6, 5.910e-7
-0.171, 8.500e-10, -3.603e-8, -3.688e-8, -1.602e-6, -1.011e-6, 5.917e-7
-0.172, 7.990e-10, -3.604e-8, -3.684e-8, -1.607e-6, -1.014e-6, 5.923e-7
-0.173, 7.425e-10, -3.605e-8, -3.679e-8, -1.611e-6, -1.018e-6, 5.930e-7
-0.174, 6.802e-10, -3.606e-8, -3.674e-8, -1.615e-6, -1.022e-6, 5.936e-7
-0.175, 6.088e-10, -3.608e-8, -3.669e-8, -1.619e-6, -1.025e-6, 5.942e-7
-0.176, 5.342e-10, -3.610e-8, -3.663e-8, -1.624e-6, -1.029e-6, 5.948e-7
-0.177, 4.737e-10, -3.611e-8, -3.658e-8, -1.628e-6, -1.032e-6, 5.953e-7
-0.178, 4.164e-10, -3.612e-8, -3.654e-8, -1.632e-6, -1.036e-6, 5.959e-7
-0.179, 3.585e-10, -3.614e-8, -3.650e-8, -1.636e-6, -1.040e-6, 5.964e-7
-0.180, 2.962e-10, -3.616e-8, -3.646e-8, -1.640e-6, -1.043e-6, 5.969e-7
-0.181, 2.310e-10, -3.619e-8, -3.642e-8, -1.644e-6, -1.047e-6, 5.975e-7
-0.182, 1.571e-10, -3.622e-8, -3.638e-8, -1.648e-6, -1.050e-6, 5.979e-7
-0.183, 8.038e-11, -3.626e-8, -3.634e-8, -1.652e-6, -1.054e-6, 5.984e-7
-0.184, 1.559e-11, -3.629e-8, -3.630e-8, -1.656e-6, -1.057e-6, 5.989e-7
-0.185, -3.366e-11, -3.631e-8, -3.628e-8, -1.660e-6, -1.061e-6, 5.994e-7
-0.186, -6.703e-11, -3.633e-8, -3.626e-8, -1.664e-6, -1.065e-6, 5.999e-7
-0.187, -8.382e-11, -3.633e-8, -3.625e-8, -1.668e-6, -1.068e-6, 6.003e-7
-0.188, -7.570e-11, -3.633e-8, -3.625e-8, -1.672e-6, -1.072e-6, 6.008e-7
-0.189, -6.769e-11, -3.632e-8, -3.626e-8, -1.676e-6, -1.075e-6, 6.012e-7
-0.190, -4.079e-11, -3.631e-8, -3.627e-8, -1.680e-6, -1.079e-6, 6.017e-7
-0.191, -1.225e-11, -3.630e-8, -3.629e-8, -1.684e-6, -1.082e-6, 6.021e-7
-0.192, 3.037e-11, -3.628e-8, -3.631e-8, -1.688e-6, -1.086e-6, 6.026e-7
-0.193, 8.773e-11, -3.625e-8, -3.634e-8, -1.692e-6, -1.089e-6, 6.030e-7
-0.194, 1.656e-10, -3.623e-8, -3.639e-8, -1.696e-6, -1.093e-6, 6.034e-7
-0.195, 2.459e-10, -3.621e-8, -3.645e-8, -1.700e-6, -1.096e-6, 6.038e-7
-0.196, 3.365e-10, -3.617e-8, -3.650e-8, -1.704e-6, -1.100e-6, 6.043e-7
-0.197, 4.319e-10, -3.613e-8, -3.657e-8, -1.708e-6, -1.103e-6, 6.047e-7
-0.198, 5.379e-10, -3.610e-8, -3.664e-8, -1.712e-6, -1.107e-6, 6.051e-7
-0.199, 6.317e-10, -3.607e-8, -3.670e-8, -1.716e-6, -1.111e-6, 6.056e-7
-0.200, 7.324e-10, -3.604e-8, -3.677e-8, -1.720e-6, -1.114e-6, 6.060e-7
-0.201, 8.464e-10, -3.600e-8, -3.685e-8, -1.724e-6, -1.118e-6, 6.065e-7
-0.202, 9.571e-10, -3.597e-8, -3.693e-8, -1.728e-6, -1.121e-6, 6.069e-7
-0.203, 1.078e-9, -3.593e-8, -3.701e-8, -1.732e-6, -1.125e-6, 6.074e-7
-0.204, 1.204e-9, -3.589e-8, -3.709e-8, -1.736e-6, -1.129e-6, 6.078e-7
-0.205, 1.325e-9, -3.584e-8, -3.717e-8, -1.741e-6, -1.132e-6, 6.083e-7
-0.206, 1.437e-9, -3.579e-8, -3.723e-8, -1.745e-6, -1.136e-6, 6.088e-7
-0.207, 1.530e-9, -3.575e-8, -3.728e-8, -1.749e-6, -1.140e-6, 6.094e-7
-0.208, 1.618e-9, -3.571e-8, -3.733e-8, -1.753e-6, -1.143e-6, 6.099e-7
-0.209, 1.695e-9, -3.566e-8, -3.735e-8, -1.758e-6, -1.147e-6, 6.105e-7
-0.210, 1.760e-9, -3.561e-8, -3.737e-8, -1.762e-6, -1.151e-6, 6.111e-7
-0.211, 1.814e-9, -3.557e-8, -3.738e-8, -1.766e-6, -1.155e-6, 6.117e-7
-0.212, 1.841e-9, -3.553e-8, -3.737e-8, -1.771e-6, -1.158e-6, 6.123e-7
-0.213, 1.869e-9, -3.549e-8, -3.736e-8, -1.775e-6, -1.162e-6, 6.130e-7
-0.214, 1.891e-9, -3.545e-8, -3.734e-8, -1.779e-6, -1.166e-6, 6.136e-7
-0.215, 1.896e-9, -3.542e-8, -3.732e-8, -1.784e-6, -1.169e-6, 6.143e-7
-0.216, 1.888e-9, -3.539e-8, -3.728e-8, -1.788e-6, -1.173e-6, 6.150e-7
-0.217, 1.868e-9, -3.537e-8, -3.724e-8, -1.793e-6, -1.177e-6, 6.157e-7
-0.218, 1.835e-9, -3.534e-8, -3.717e-8, -1.797e-6, -1.181e-6, 6.164e-7
-0.219, 1.789e-9, -3.531e-8, -3.710e-8, -1.802e-6, -1.184e-6, 6.171e-7
-0.220, 1.736e-9, -3.528e-8, -3.702e-8, -1.806e-6, -1.188e-6, 6.179e-7
-0.221, 1.675e-9, -3.525e-8, -3.693e-8, -1.811e-6, -1.192e-6, 6.186e-7
-0.222, 1.622e-9, -3.523e-8, -3.685e-8, -1.815e-6, -1.196e-6, 6.193e-7
-0.223, 1.565e-9, -3.521e-8, -3.678e-8, -1.820e-6, -1.200e-6, 6.201e-7
-0.224, 1.508e-9, -3.520e-8, -3.671e-8, -1.824e-6, -1.203e-6, 6.208e-7
-0.225, 1.454e-9, -3.519e-8, -3.664e-8, -1.829e-6, -1.207e-6, 6.216e-7
-0.226, 1.384e-9, -3.519e-8, -3.657e-8, -1.833e-6, -1.211e-6, 6.224e-7
-0.227, 1.315e-9, -3.519e-8, -3.651e-8, -1.838e-6, -1.215e-6, 6.232e-7
-0.228, 1.245e-9, -3.519e-8, -3.644e-8, -1.842e-6, -1.219e-6, 6.240e-7
-0.229, 1.174e-9, -3.520e-8, -3.638e-8, -1.847e-6, -1.222e-6, 6.248e-7
-0.230, 1.104e-9, -3.521e-8, -3.631e-8, -1.852e-6, -1.226e-6, 6.256e-7
-0.231, 1.051e-9, -3.521e-8, -3.626e-8, -1.856e-6, -1.230e-6, 6.264e-7
-0.232, 1.020e-9, -3.521e-8, -3.623e-8, -1.861e-6, -1.234e-6, 6.272e-7
-0.233, 9.941e-10, -3.520e-8, -3.620e-8, -1.865e-6, -1.237e-6, 6.280e-7
-0.234, 9.769e-10, -3.520e-8, -3.618e-8, -1.870e-6, -1.241e-6, 6.287e-7
-0.235, 9.636e-10, -3.519e-8, -3.616e-8, -1.874e-6, -1.245e-6, 6.295e-7
-0.236, 9.620e-10, -3.519e-8, -3.615e-8, -1.879e-6, -1.249e-6, 6.303e-7
-0.237, 9.546e-10, -3.519e-8, -3.614e-8, -1.883e-6, -1.252e-6, 6.310e-7
-0.238, 9.726e-10, -3.519e-8, -3.616e-8, -1.888e-6, -1.256e-6, 6.318e-7
-0.239, 9.850e-10, -3.520e-8, -3.618e-8, -1.892e-6, -1.260e-6, 6.325e-7
-0.240, 1.006e-9, -3.520e-8, -3.621e-8, -1.897e-6, -1.264e-6, 6.332e-7
-0.241, 1.043e-9, -3.520e-8, -3.624e-8, -1.901e-6, -1.267e-6, 6.339e-7
-0.242, 1.089e-9, -3.520e-8, -3.629e-8, -1.906e-6, -1.271e-6, 6.346e-7
-0.243, 1.136e-9, -3.520e-8, -3.633e-8, -1.910e-6, -1.275e-6, 6.353e-7
-0.244, 1.192e-9, -3.518e-8, -3.638e-8, -1.915e-6, -1.279e-6, 6.360e-7
-0.245, 1.252e-9, -3.518e-8, -3.643e-8, -1.919e-6, -1.282e-6, 6.366e-7
-0.246, 1.317e-9, -3.517e-8, -3.649e-8, -1.923e-6, -1.286e-6, 6.373e-7
-0.247, 1.378e-9, -3.517e-8, -3.654e-8, -1.928e-6, -1.290e-6, 6.379e-7
-0.248, 1.455e-9, -3.515e-8, -3.661e-8, -1.932e-6, -1.294e-6, 6.385e-7
-0.249, 1.532e-9, -3.514e-8, -3.667e-8, -1.936e-6, -1.297e-6, 6.392e-7
-0.250, 1.597e-9, -3.513e-8, -3.673e-8, -1.941e-6, -1.301e-6, 6.398e-7
-0.251, 1.665e-9, -3.512e-8, -3.678e-8, -1.945e-6, -1.305e-6, 6.404e-7
-0.252, 1.724e-9, -3.511e-8, -3.683e-8, -1.949e-6, -1.308e-6, 6.410e-7
-0.253, 1.761e-9, -3.511e-8, -3.687e-8, -1.954e-6, -1.312e-6, 6.416e-7
-0.254, 1.783e-9, -3.512e-8, -3.690e-8, -1.958e-6, -1.316e-6, 6.422e-7
-0.255, 1.788e-9, -3.513e-8, -3.692e-8, -1.962e-6, -1.320e-6, 6.428e-7
-0.256, 1.792e-9, -3.515e-8, -3.695e-8, -1.967e-6, -1.323e-6, 6.434e-7
-0.257, 1.790e-9, -3.517e-8, -3.696e-8, -1.971e-6, -1.327e-6, 6.440e-7
-0.258, 1.777e-9, -3.520e-8, -3.697e-8, -1.975e-6, -1.330e-6, 6.446e-7
-0.259, 1.749e-9, -3.522e-8, -3.697e-8, -1.979e-6, -1.334e-6, 6.451e-7
-0.260, 1.711e-9, -3.525e-8, -3.696e-8, -1.983e-6, -1.338e-6, 6.457e-7
-0.261, 1.667e-9, -3.529e-8, -3.695e-8, -1.988e-6, -1.341e-6, 6.463e-7
-0.262, 1.611e-9, -3.533e-8, -3.694e-8, -1.992e-6, -1.345e-6, 6.469e-7
-0.263, 1.541e-9, -3.538e-8, -3.692e-8, -1.996e-6, -1.348e-6, 6.474e-7
-0.264, 1.472e-9, -3.542e-8, -3.689e-8, -2.000e-6, -1.352e-6, 6.480e-7
-0.265, 1.396e-9, -3.547e-8, -3.686e-8, -2.004e-6, -1.356e-6, 6.486e-7
-0.266, 1.320e-9, -3.551e-8, -3.683e-8, -2.008e-6, -1.359e-6, 6.491e-7
-0.267, 1.245e-9, -3.557e-8, -3.682e-8, -2.012e-6, -1.363e-6, 6.497e-7
-0.268, 1.166e-9, -3.563e-8, -3.680e-8, -2.016e-6, -1.366e-6, 6.502e-7
-0.269, 1.087e-9, -3.570e-8, -3.679e-8, -2.020e-6, -1.370e-6, 6.508e-7
-0.270, 1.016e-9, -3.576e-8, -3.678e-8, -2.024e-6, -1.373e-6, 6.513e-7
-0.271, 9.413e-10, -3.583e-8, -3.677e-8, -2.028e-6, -1.377e-6, 6.518e-7
-0.272, 8.687e-10, -3.589e-8, -3.676e-8, -2.032e-6, -1.380e-6, 6.523e-7
-0.273, 8.070e-10, -3.595e-8, -3.676e-8, -2.036e-6, -1.383e-6, 6.529e-7
-0.274, 7.410e-10, -3.602e-8, -3.676e-8, -2.040e-6, -1.387e-6, 6.534e-7
-0.275, 6.901e-10, -3.607e-8, -3.676e-8, -2.044e-6, -1.390e-6, 6.539e-7
-0.276, 6.464e-10, -3.612e-8, -3.677e-8, -2.048e-6, -1.394e-6, 6.544e-7
-0.277, 6.169e-10, -3.616e-8, -3.678e-8, -2.052e-6, -1.397e-6, 6.548e-7
-0.278, 6.010e-10, -3.619e-8, -3.679e-8, -2.056e-6, -1.400e-6, 6.553e-7
-0.279, 6.058e-10, -3.621e-8, -3.681e-8, -2.060e-6, -1.404e-6, 6.557e-7
-0.280, 6.185e-10, -3.622e-8, -3.684e-8, -2.063e-6, -1.407e-6, 6.561e-7
-0.281, 6.387e-10, -3.624e-8, -3.688e-8, -2.067e-6, -1.411e-6, 6.565e-7
-0.282, 6.591e-10, -3.625e-8, -3.691e-8, -2.071e-6, -1.414e-6, 6.568e-7
-0.283, 6.845e-10, -3.626e-8, -3.694e-8, -2.074e-6, -1.417e-6, 6.571e-7
-0.284, 7.214e-10, -3.626e-8, -3.698e-8, -2.078e-6, -1.421e-6, 6.575e-7
-0.285, 7.751e-10, -3.626e-8, -3.703e-8, -2.082e-6, -1.424e-6, 6.578e-7
-0.286, 8.346e-10, -3.624e-8, -3.708e-8, -2.086e-6, -1.428e-6, 6.581e-7
-0.287, 8.954e-10, -3.622e-8, -3.711e-8, -2.089e-6, -1.431e-6, 6.583e-7
-0.288, 9.767e-10, -3.618e-8, -3.716e-8, -2.093e-6, -1.434e-6, 6.586e-7
-0.289, 1.074e-9, -3.613e-8, -3.720e-8, -2.097e-6, -1.438e-6, 6.588e-7
-0.290, 1.169e-9, -3.608e-8, -3.724e-8, -2.100e-6, -1.441e-6, 6.590e-7
-0.291, 1.260e-9, -3.602e-8, -3.728e-8, -2.104e-6, -1.445e-6, 6.592e-7
-0.292, 1.351e-9, -3.597e-8, -3.732e-8, -2.108e-6, -1.448e-6, 6.594e-7
-0.293, 1.445e-9, -3.591e-8, -3.736e-8, -2.111e-6, -1.452e-6, 6.596e-7
-0.294, 1.530e-9, -3.586e-8, -3.739e-8, -2.115e-6, -1.455e-6, 6.597e-7
-0.295, 1.615e-9, -3.580e-8, -3.742e-8, -2.119e-6, -1.459e-6, 6.598e-7
-0.296, 1.699e-9, -3.574e-8, -3.744e-8, -2.122e-6, -1.463e-6, 6.599e-7
-0.297, 1.775e-9, -3.567e-8, -3.745e-8, -2.126e-6, -1.466e-6, 6.600e-7
-0.298, 1.840e-9, -3.561e-8, -3.745e-8, -2.130e-6, -1.470e-6, 6.601e-7
-0.299, 1.903e-9, -3.556e-8, -3.746e-8, -2.133e-6, -1.473e-6, 6.602e-7
-0.300, 1.953e-9, -3.551e-8, -3.746e-8, -2.137e-6, -1.477e-6, 6.603e-7
-0.301, 1.991e-9, -3.546e-8, -3.746e-8, -2.141e-6, -1.480e-6, 6.603e-7
-0.302, 2.029e-9, -3.542e-8, -3.745e-8, -2.144e-6, -1.484e-6, 6.604e-7
-0.303, 2.066e-9, -3.538e-8, -3.744e-8, -2.148e-6, -1.488e-6, 6.604e-7
-0.304, 2.100e-9, -3.534e-8, -3.744e-8, -2.152e-6, -1.491e-6, 6.605e-7
-0.305, 2.125e-9, -3.531e-8, -3.743e-8, -2.156e-6, -1.495e-6, 6.605e-7
-0.306, 2.136e-9, -3.528e-8, -3.742e-8, -2.159e-6, -1.499e-6, 6.606e-7
-0.307, 2.140e-9, -3.527e-8, -3.741e-8, -2.163e-6, -1.502e-6, 6.607e-7
-0.308, 2.139e-9, -3.526e-8, -3.740e-8, -2.167e-6, -1.506e-6, 6.608e-7
-0.309, 2.124e-9, -3.526e-8, -3.738e-8, -2.171e-6, -1.510e-6, 6.608e-7
-0.310, 2.096e-9, -3.527e-8, -3.737e-8, -2.174e-6, -1.513e-6, 6.609e-7
-0.311, 2.065e-9, -3.528e-8, -3.735e-8, -2.178e-6, -1.517e-6, 6.610e-7
-0.312, 2.022e-9, -3.530e-8, -3.732e-8, -2.182e-6, -1.521e-6, 6.611e-7
-0.313, 1.970e-9, -3.533e-8, -3.730e-8, -2.186e-6, -1.524e-6, 6.612e-7
-0.314, 1.916e-9, -3.536e-8, -3.728e-8, -2.189e-6, -1.528e-6, 6.612e-7
-0.315, 1.861e-9, -3.540e-8, -3.726e-8, -2.193e-6, -1.532e-6, 6.613e-7
-0.316, 1.799e-9, -3.543e-8, -3.723e-8, -2.197e-6, -1.535e-6, 6.614e-7
-0.317, 1.749e-9, -3.545e-8, -3.720e-8, -2.201e-6, -1.539e-6, 6.614e-7
-0.318, 1.706e-9, -3.548e-8, -3.719e-8, -2.204e-6, -1.543e-6, 6.615e-7
-0.319, 1.658e-9, -3.551e-8, -3.717e-8, -2.208e-6, -1.547e-6, 6.616e-7
-0.320, 1.611e-9, -3.554e-8, -3.715e-8, -2.212e-6, -1.550e-6, 6.617e-7
-0.321, 1.564e-9, -3.557e-8, -3.714e-8, -2.216e-6, -1.554e-6, 6.617e-7
-0.322, 1.514e-9, -3.561e-8, -3.712e-8, -2.219e-6, -1.557e-6, 6.618e-7
-0.323, 1.478e-9, -3.563e-8, -3.711e-8, -2.223e-6, -1.561e-6, 6.619e-7
-0.324, 1.447e-9, -3.565e-8, -3.710e-8, -2.227e-6, -1.565e-6, 6.619e-7
-0.325, 1.415e-9, -3.568e-8, -3.709e-8, -2.230e-6, -1.568e-6, 6.619e-7
-0.326, 1.377e-9, -3.571e-8, -3.709e-8, -2.234e-6, -1.572e-6, 6.620e-7
-0.327, 1.346e-9, -3.574e-8, -3.709e-8, -2.238e-6, -1.576e-6, 6.620e-7
-0.328, 1.303e-9, -3.578e-8, -3.708e-8, -2.241e-6, -1.579e-6, 6.620e-7
-0.329, 1.260e-9, -3.582e-8, -3.708e-8, -2.245e-6, -1.583e-6, 6.620e-7
-0.330, 1.206e-9, -3.586e-8, -3.706e-8, -2.249e-6, -1.587e-6, 6.620e-7
-0.331, 1.168e-9, -3.589e-8, -3.706e-8, -2.252e-6, -1.590e-6, 6.620e-7
-0.332, 1.132e-9, -3.593e-8, -3.706e-8, -2.256e-6, -1.594e-6, 6.620e-7
-0.333, 1.103e-9, -3.596e-8, -3.706e-8, -2.260e-6, -1.598e-6, 6.620e-7
-0.334, 1.062e-9, -3.599e-8, -3.705e-8, -2.263e-6, -1.601e-6, 6.619e-7
-0.335, 1.040e-9, -3.600e-8, -3.704e-8, -2.267e-6, -1.605e-6, 6.619e-7
-0.336, 1.015e-9, -3.602e-8, -3.704e-8, -2.271e-6, -1.609e-6, 6.618e-7
-0.337, 9.760e-10, -3.605e-8, -3.702e-8, -2.274e-6, -1.612e-6, 6.617e-7
-0.338, 9.323e-10, -3.608e-8, -3.701e-8, -2.278e-6, -1.616e-6, 6.616e-7
-0.339, 8.828e-10, -3.610e-8, -3.699e-8, -2.281e-6, -1.620e-6, 6.614e-7
-0.340, 8.336e-10, -3.613e-8, -3.697e-8, -2.285e-6, -1.624e-6, 6.613e-7
-0.341, 7.817e-10, -3.616e-8, -3.694e-8, -2.288e-6, -1.627e-6, 6.611e-7
-0.342, 7.292e-10, -3.618e-8, -3.691e-8, -2.292e-6, -1.631e-6, 6.610e-7
-0.343, 6.818e-10, -3.620e-8, -3.688e-8, -2.295e-6, -1.635e-6, 6.608e-7
-0.344, 6.321e-10, -3.622e-8, -3.685e-8, -2.299e-6, -1.638e-6, 6.606e-7
-0.345, 5.790e-10, -3.624e-8, -3.682e-8, -2.302e-6, -1.642e-6, 6.603e-7
-0.346, 5.211e-10, -3.628e-8, -3.680e-8, -2.306e-6, -1.645e-6, 6.601e-7
-0.347, 4.671e-10, -3.631e-8, -3.678e-8, -2.309e-6, -1.649e-6, 6.598e-7
-0.348, 4.237e-10, -3.634e-8, -3.677e-8, -2.312e-6, -1.653e-6, 6.596e-7
-0.349, 3.764e-10, -3.638e-8, -3.675e-8, -2.316e-6, -1.656e-6, 6.593e-7
-0.350, 3.358e-10, -3.641e-8, -3.674e-8, -2.319e-6, -1.660e-6, 6.590e-7
-0.351, 2.987e-10, -3.644e-8, -3.674e-8, -2.322e-6, -1.664e-6, 6.586e-7
-0.352, 2.605e-10, -3.648e-8, -3.674e-8, -2.325e-6, -1.667e-6, 6.583e-7
-0.353, 2.269e-10, -3.651e-8, -3.674e-8, -2.329e-6, -1.671e-6, 6.579e-7
-0.354, 1.890e-10, -3.656e-8, -3.675e-8, -2.332e-6, -1.674e-6, 6.575e-7
-0.355, 1.491e-10, -3.660e-8, -3.675e-8, -2.335e-6, -1.678e-6, 6.571e-7
-0.356, 1.085e-10, -3.665e-8, -3.676e-8, -2.338e-6, -1.681e-6, 6.566e-7
-0.357, 6.455e-11, -3.670e-8, -3.676e-8, -2.341e-6, -1.685e-6, 6.561e-7
-0.358, 3.191e-11, -3.674e-8, -3.677e-8, -2.344e-6, -1.688e-6, 6.556e-7
-0.359, 1.409e-11, -3.676e-8, -3.677e-8, -2.347e-6, -1.692e-6, 6.551e-7
-0.360, -5.334e-12, -3.678e-8, -3.677e-8, -2.350e-6, -1.695e-6, 6.545e-7
-0.361, -1.208e-12, -3.679e-8, -3.679e-8, -2.352e-6, -1.699e-6, 6.539e-7
-0.362, 8.673e-12, -3.680e-8, -3.680e-8, -2.355e-6, -1.702e-6, 6.533e-7
-0.363, 3.176e-11, -3.680e-8, -3.683e-8, -2.358e-6, -1.705e-6, 6.527e-7
-0.364, 5.968e-11, -3.679e-8, -3.685e-8, -2.360e-6, -1.708e-6, 6.520e-7
-0.365, 9.794e-11, -3.678e-8, -3.688e-8, -2.363e-6, -1.712e-6, 6.514e-7
-0.366, 1.222e-10, -3.677e-8, -3.689e-8, -2.365e-6, -1.715e-6, 6.507e-7
-0.367, 1.413e-10, -3.676e-8, -3.690e-8, -2.368e-6, -1.718e-6, 6.499e-7
-0.368, 1.701e-10, -3.674e-8, -3.691e-8, -2.370e-6, -1.721e-6, 6.492e-7
-0.369, 1.994e-10, -3.672e-8, -3.692e-8, -2.372e-6, -1.724e-6, 6.483e-7
-0.370, 2.334e-10, -3.669e-8, -3.692e-8, -2.375e-6, -1.727e-6, 6.475e-7
-0.371, 2.729e-10, -3.666e-8, -3.693e-8, -2.377e-6, -1.730e-6, 6.466e-7
-0.372, 3.035e-10, -3.663e-8, -3.693e-8, -2.379e-6, -1.733e-6, 6.457e-7
-0.373, 3.310e-10, -3.660e-8, -3.693e-8, -2.381e-6, -1.736e-6, 6.448e-7
-0.374, 3.567e-10, -3.657e-8, -3.693e-8, -2.383e-6, -1.739e-6, 6.438e-7
-0.375, 3.873e-10, -3.653e-8, -3.692e-8, -2.385e-6, -1.742e-6, 6.428e-7
-0.376, 4.089e-10, -3.650e-8, -3.691e-8, -2.386e-6, -1.745e-6, 6.418e-7
-0.377, 4.328e-10, -3.647e-8, -3.691e-8, -2.388e-6, -1.747e-6, 6.407e-7
-0.378, 4.488e-10, -3.644e-8, -3.689e-8, -2.390e-6, -1.750e-6, 6.395e-7
-0.379, 4.761e-10, -3.640e-8, -3.687e-8, -2.391e-6, -1.753e-6, 6.384e-7
-0.380, 4.920e-10, -3.636e-8, -3.685e-8, -2.393e-6, -1.755e-6, 6.371e-7
-0.381, 5.138e-10, -3.631e-8, -3.683e-8, -2.394e-6, -1.758e-6, 6.359e-7
-0.382, 5.278e-10, -3.626e-8, -3.679e-8, -2.395e-6, -1.761e-6, 6.346e-7
-0.383, 5.430e-10, -3.622e-8, -3.676e-8, -2.396e-6, -1.763e-6, 6.332e-7
-0.384, 5.401e-10, -3.619e-8, -3.673e-8, -2.397e-6, -1.766e-6, 6.318e-7
-0.385, 5.287e-10, -3.616e-8, -3.669e-8, -2.398e-6, -1.768e-6, 6.304e-7
-0.386, 5.207e-10, -3.613e-8, -3.665e-8, -2.399e-6, -1.770e-6, 6.290e-7
-0.387, 5.051e-10, -3.611e-8, -3.662e-8, -2.400e-6, -1.773e-6, 6.275e-7
-0.388, 4.800e-10, -3.610e-8, -3.658e-8, -2.401e-6, -1.775e-6, 6.259e-7
-0.389, 4.459e-10, -3.608e-8, -3.653e-8, -2.401e-6, -1.777e-6, 6.243e-7
-0.390, 4.154e-10, -3.608e-8, -3.649e-8, -2.402e-6, -1.779e-6, 6.227e-7
-0.391, 3.790e-10, -3.607e-8, -3.645e-8, -2.402e-6, -1.781e-6, 6.210e-7
-0.392, 3.392e-10, -3.608e-8, -3.642e-8, -2.403e-6, -1.784e-6, 6.193e-7
-0.393, 3.027e-10, -3.609e-8, -3.640e-8, -2.403e-6, -1.786e-6, 6.175e-7
-0.394, 2.643e-10, -3.611e-8, -3.638e-8, -2.403e-6, -1.788e-6, 6.157e-7
-0.395, 2.301e-10, -3.614e-8, -3.637e-8, -2.403e-6, -1.789e-6, 6.139e-7
-0.396, 2.049e-10, -3.616e-8, -3.636e-8, -2.403e-6, -1.791e-6, 6.121e-7
-0.397, 1.698e-10, -3.619e-8, -3.636e-8, -2.403e-6, -1.793e-6, 6.101e-7
-0.398, 1.418e-10, -3.622e-8, -3.636e-8, -2.403e-6, -1.795e-6, 6.082e-7
-0.399, 1.130e-10, -3.626e-8, -3.638e-8, -2.403e-6, -1.797e-6, 6.061e-7
-0.400, 8.113e-11, -3.631e-8, -3.639e-8, -2.402e-6, -1.798e-6, 6.041e-7
-0.401, 5.564e-11, -3.635e-8, -3.640e-8, -2.402e-6, -1.800e-6, 6.020e-7
-0.402, 2.599e-11, -3.639e-8, -3.642e-8, -2.401e-6, -1.802e-6, 5.998e-7
-0.403, 3.174e-12, -3.643e-8, -3.643e-8, -2.401e-6, -1.803e-6, 5.977e-7
-0.404, -1.029e-11, -3.646e-8, -3.645e-8, -2.400e-6, -1.805e-6, 5.955e-7
-0.405, -2.086e-11, -3.648e-8, -3.646e-8, -2.399e-6, -1.806e-6, 5.933e-7
-0.406, -1.583e-11, -3.648e-8, -3.647e-8, -2.398e-6, -1.807e-6, 5.910e-7
-0.407, -5.516e-12, -3.649e-8, -3.648e-8, -2.398e-6, -1.809e-6, 5.888e-7
-0.408, 9.187e-12, -3.649e-8, -3.650e-8, -2.397e-6, -1.810e-6, 5.865e-7
-0.409, 3.268e-11, -3.649e-8, -3.652e-8, -2.395e-6, -1.811e-6, 5.842e-7
-0.410, 3.221e-11, -3.650e-8, -3.653e-8, -2.394e-6, -1.813e-6, 5.818e-7
-0.411, 3.853e-11, -3.650e-8, -3.654e-8, -2.393e-6, -1.814e-6, 5.795e-7
-0.412, 3.849e-11, -3.650e-8, -3.654e-8, -2.392e-6, -1.815e-6, 5.771e-7
-0.413, 3.565e-11, -3.650e-8, -3.653e-8, -2.391e-6, -1.816e-6, 5.747e-7
-0.414, 2.637e-11, -3.649e-8, -3.652e-8, -2.389e-6, -1.817e-6, 5.723e-7
-0.415, 2.995e-11, -3.648e-8, -3.651e-8, -2.388e-6, -1.818e-6, 5.698e-7
-0.416, 3.511e-11, -3.647e-8, -3.650e-8, -2.386e-6, -1.819e-6, 5.674e-7
-0.417, 4.327e-11, -3.646e-8, -3.650e-8, -2.385e-6, -1.820e-6, 5.649e-7
-0.418, 4.683e-11, -3.644e-8, -3.649e-8, -2.383e-6, -1.821e-6, 5.624e-7
-0.419, 5.295e-11, -3.643e-8, -3.648e-8, -2.382e-6, -1.822e-6, 5.598e-7
-0.420, 4.785e-11, -3.641e-8, -3.646e-8, -2.380e-6, -1.823e-6, 5.573e-7
-0.421, 5.050e-11, -3.639e-8, -3.644e-8, -2.378e-6, -1.824e-6, 5.547e-7
-0.422, 4.894e-11, -3.638e-8, -3.642e-8, -2.376e-6, -1.824e-6, 5.520e-7
-0.423, 5.752e-11, -3.635e-8, -3.641e-8, -2.375e-6, -1.825e-6, 5.494e-7
-0.424, 6.407e-11, -3.633e-8, -3.640e-8, -2.373e-6, -1.826e-6, 5.468e-7
-0.425, 7.038e-11, -3.631e-8, -3.638e-8, -2.371e-6, -1.827e-6, 5.441e-7
-0.426, 7.564e-11, -3.628e-8, -3.635e-8, -2.369e-6, -1.828e-6, 5.415e-7
-0.427, 9.048e-11, -3.625e-8, -3.634e-8, -2.367e-6, -1.828e-6, 5.388e-7
-0.428, 9.648e-11, -3.622e-8, -3.632e-8, -2.365e-6, -1.829e-6, 5.361e-7
-0.429, 1.040e-10, -3.620e-8, -3.631e-8, -2.363e-6, -1.830e-6, 5.334e-7
-0.430, 1.103e-10, -3.618e-8, -3.629e-8, -2.361e-6, -1.830e-6, 5.307e-7
-0.431, 1.129e-10, -3.617e-8, -3.629e-8, -2.359e-6, -1.831e-6, 5.281e-7
-0.432, 1.142e-10, -3.617e-8, -3.628e-8, -2.357e-6, -1.832e-6, 5.253e-7
-0.433, 1.147e-10, -3.616e-8, -3.628e-8, -2.355e-6, -1.832e-6, 5.227e-7
-0.434, 1.193e-10, -3.616e-8, -3.628e-8, -2.353e-6, -1.833e-6, 5.200e-7
-0.435, 1.147e-10, -3.616e-8, -3.628e-8, -2.351e-6, -1.833e-6, 5.173e-7
-0.436, 1.051e-10, -3.618e-8, -3.628e-8, -2.348e-6, -1.834e-6, 5.146e-7
-0.437, 1.137e-10, -3.619e-8, -3.630e-8, -2.346e-6, -1.834e-6, 5.119e-7
-0.438, 1.307e-10, -3.620e-8, -3.633e-8, -2.344e-6, -1.835e-6, 5.092e-7
-0.439, 1.407e-10, -3.622e-8, -3.636e-8, -2.342e-6, -1.835e-6, 5.065e-7
-0.440, 1.527e-10, -3.624e-8, -3.639e-8, -2.340e-6, -1.836e-6, 5.038e-7
-0.441, 1.704e-10, -3.626e-8, -3.643e-8, -2.337e-6, -1.836e-6, 5.011e-7
-0.442, 1.824e-10, -3.628e-8, -3.646e-8, -2.335e-6, -1.837e-6, 4.984e-7
-0.443, 2.031e-10, -3.630e-8, -3.650e-8, -2.333e-6, -1.837e-6, 4.956e-7
-0.444, 2.309e-10, -3.631e-8, -3.654e-8, -2.331e-6, -1.838e-6, 4.929e-7
-0.445, 2.516e-10, -3.633e-8, -3.658e-8, -2.328e-6, -1.838e-6, 4.902e-7
-0.446, 2.742e-10, -3.634e-8, -3.662e-8, -2.326e-6, -1.838e-6, 4.874e-7
-0.447, 2.948e-10, -3.635e-8, -3.665e-8, -2.323e-6, -1.839e-6, 4.847e-7
-0.448, 3.218e-10, -3.635e-8, -3.667e-8, -2.321e-6, -1.839e-6, 4.820e-7
-0.449, 3.633e-10, -3.633e-8, -3.670e-8, -2.319e-6, -1.839e-6, 4.793e-7
-0.450, 4.019e-10, -3.632e-8, -3.672e-8, -2.316e-6, -1.839e-6, 4.767e-7
-0.451, 4.404e-10, -3.630e-8, -3.674e-8, -2.314e-6, -1.840e-6, 4.740e-7
-0.452, 4.773e-10, -3.628e-8, -3.676e-8, -2.311e-6, -1.840e-6, 4.713e-7
-0.453, 5.153e-10, -3.626e-8, -3.677e-8, -2.309e-6, -1.840e-6, 4.687e-7
-0.454, 5.554e-10, -3.624e-8, -3.679e-8, -2.306e-6, -1.840e-6, 4.661e-7
-0.455, 5.858e-10, -3.622e-8, -3.681e-8, -2.304e-6, -1.840e-6, 4.634e-7
-0.456, 6.004e-10, -3.621e-8, -3.681e-8, -2.301e-6, -1.840e-6, 4.608e-7
-0.457, 6.038e-10, -3.621e-8, -3.681e-8, -2.299e-6, -1.840e-6, 4.582e-7
-0.458, 5.914e-10, -3.621e-8, -3.680e-8, -2.296e-6, -1.840e-6, 4.556e-7
-0.459, 5.934e-10, -3.620e-8, -3.679e-8, -2.293e-6, -1.840e-6, 4.530e-7
-0.460, 5.891e-10, -3.618e-8, -3.677e-8, -2.291e-6, -1.840e-6, 4.503e-7
-0.461, 5.845e-10, -3.618e-8, -3.676e-8, -2.288e-6, -1.840e-6, 4.477e-7
-0.462, 5.778e-10, -3.617e-8, -3.675e-8, -2.285e-6, -1.840e-6, 4.451e-7
-0.463, 5.696e-10, -3.616e-8, -3.673e-8, -2.283e-6, -1.840e-6, 4.424e-7
-0.464, 5.579e-10, -3.616e-8, -3.671e-8, -2.280e-6, -1.840e-6, 4.398e-7
-0.465, 5.536e-10, -3.615e-8, -3.670e-8, -2.277e-6, -1.840e-6, 4.371e-7
-0.466, 5.401e-10, -3.614e-8, -3.668e-8, -2.275e-6, -1.840e-6, 4.345e-7
-0.467, 5.371e-10, -3.612e-8, -3.666e-8, -2.272e-6, -1.840e-6, 4.319e-7
-0.468, 5.315e-10, -3.611e-8, -3.664e-8, -2.269e-6, -1.840e-6, 4.292e-7
-0.469, 5.384e-10, -3.609e-8, -3.663e-8, -2.266e-6, -1.840e-6, 4.266e-7
-0.470, 5.389e-10, -3.608e-8, -3.662e-8, -2.264e-6, -1.840e-6, 4.239e-7
-0.471, 5.433e-10, -3.607e-8, -3.661e-8, -2.261e-6, -1.840e-6, 4.213e-7
-0.472, 5.328e-10, -3.607e-8, -3.660e-8, -2.258e-6, -1.840e-6, 4.187e-7
-0.473, 5.223e-10, -3.607e-8, -3.659e-8, -2.255e-6, -1.839e-6, 4.161e-7
-0.474, 5.175e-10, -3.606e-8, -3.658e-8, -2.253e-6, -1.839e-6, 4.134e-7
-0.475, 5.165e-10, -3.606e-8, -3.658e-8, -2.250e-6, -1.839e-6, 4.108e-7
-0.476, 5.178e-10, -3.606e-8, -3.658e-8, -2.247e-6, -1.839e-6, 4.082e-7
-0.477, 5.234e-10, -3.607e-8, -3.659e-8, -2.244e-6, -1.839e-6, 4.056e-7
-0.478, 5.393e-10, -3.607e-8, -3.661e-8, -2.242e-6, -1.839e-6, 4.030e-7
-0.479, 5.583e-10, -3.608e-8, -3.664e-8, -2.239e-6, -1.839e-6, 4.004e-7
-0.480, 5.868e-10, -3.608e-8, -3.667e-8, -2.236e-6, -1.838e-6, 3.977e-7
-0.481, 6.163e-10, -3.608e-8, -3.670e-8, -2.233e-6, -1.838e-6, 3.951e-7
-0.482, 6.555e-10, -3.608e-8, -3.674e-8, -2.231e-6, -1.838e-6, 3.925e-7
-0.483, 7.056e-10, -3.608e-8, -3.679e-8, -2.228e-6, -1.838e-6, 3.899e-7
-0.484, 7.743e-10, -3.607e-8, -3.685e-8, -2.225e-6, -1.837e-6, 3.873e-7
-0.485, 8.588e-10, -3.605e-8, -3.691e-8, -2.222e-6, -1.837e-6, 3.846e-7
-0.486, 9.316e-10, -3.603e-8, -3.696e-8, -2.219e-6, -1.837e-6, 3.820e-7
-0.487, 1.004e-9, -3.600e-8, -3.701e-8, -2.216e-6, -1.837e-6, 3.794e-7
-0.488, 1.091e-9, -3.597e-8, -3.706e-8, -2.213e-6, -1.836e-6, 3.767e-7
-0.489, 1.177e-9, -3.594e-8, -3.712e-8, -2.210e-6, -1.836e-6, 3.741e-7
-0.490, 1.256e-9, -3.591e-8, -3.716e-8, -2.207e-6, -1.835e-6, 3.714e-7
-0.491, 1.342e-9, -3.587e-8, -3.721e-8, -2.204e-6, -1.835e-6, 3.688e-7
-0.492, 1.428e-9, -3.584e-8, -3.726e-8, -2.201e-6, -1.835e-6, 3.662e-7
-0.493, 1.504e-9, -3.581e-8, -3.731e-8, -2.198e-6, -1.834e-6, 3.636e-7
-0.494, 1.575e-9, -3.577e-8, -3.734e-8, -2.194e-6, -1.833e-6, 3.610e-7
-0.495, 1.650e-9, -3.573e-8, -3.738e-8, -2.191e-6, -1.833e-6, 3.584e-7
-0.496, 1.729e-9, -3.568e-8, -3.741e-8, -2.188e-6, -1.832e-6, 3.558e-7
-0.497, 1.807e-9, -3.564e-8, -3.745e-8, -2.185e-6, -1.832e-6, 3.533e-7
-0.498, 1.872e-9, -3.560e-8, -3.747e-8, -2.182e-6, -1.831e-6, 3.507e-7
-0.499, 1.922e-9, -3.557e-8, -3.750e-8, -2.178e-6, -1.830e-6, 3.481e-7
-0.500, 1.966e-9, -3.555e-8, -3.751e-8, -2.175e-6, -1.829e-6, 3.455e-7
-0.501, 1.993e-9, -3.553e-8, -3.752e-8, -2.171e-6, -1.829e-6, 3.429e-7
-0.502, 2.011e-9, -3.550e-8, -3.751e-8, -2.168e-6, -1.828e-6, 3.403e-7
-0.503, 2.019e-9, -3.549e-8, -3.750e-8, -2.164e-6, -1.827e-6, 3.376e-7
-0.504, 2.009e-9, -3.547e-8, -3.748e-8, -2.161e-6, -1.826e-6, 3.350e-7
-0.505, 1.991e-9, -3.547e-8, -3.746e-8, -2.157e-6, -1.825e-6, 3.323e-7
-0.506, 1.965e-9, -3.547e-8, -3.744e-8, -2.153e-6, -1.824e-6, 3.296e-7
-0.507, 1.938e-9, -3.547e-8, -3.741e-8, -2.150e-6, -1.823e-6, 3.268e-7
-0.508, 1.903e-9, -3.548e-8, -3.738e-8, -2.146e-6, -1.822e-6, 3.241e-7
-0.509, 1.859e-9, -3.549e-8, -3.735e-8, -2.142e-6, -1.821e-6, 3.214e-7
-0.510, 1.811e-9, -3.550e-8, -3.731e-8, -2.138e-6, -1.819e-6, 3.186e-7
-0.511, 1.759e-9, -3.551e-8, -3.727e-8, -2.134e-6, -1.818e-6, 3.159e-7
-0.512, 1.716e-9, -3.552e-8, -3.723e-8, -2.130e-6, -1.817e-6, 3.132e-7
-0.513, 1.668e-9, -3.552e-8, -3.719e-8, -2.126e-6, -1.816e-6, 3.105e-7
-0.514, 1.614e-9, -3.552e-8, -3.714e-8, -2.122e-6, -1.815e-6, 3.078e-7
-0.515, 1.562e-9, -3.553e-8, -3.710e-8, -2.118e-6, -1.813e-6, 3.051e-7
-0.516, 1.498e-9, -3.555e-8, -3.705e-8, -2.114e-6, -1.812e-6, 3.023e-7
-0.517, 1.423e-9, -3.557e-8, -3.700e-8, -2.110e-6, -1.811e-6, 2.996e-7
-0.518, 1.340e-9, -3.560e-8, -3.694e-8, -2.106e-6, -1.809e-6, 2.969e-7
-0.519, 1.259e-9, -3.563e-8, -3.689e-8, -2.102e-6, -1.808e-6, 2.942e-7
-0.520, 1.175e-9, -3.565e-8, -3.683e-8, -2.098e-6, -1.806e-6, 2.915e-7
-0.521, 1.099e-9, -3.567e-8, -3.677e-8, -2.094e-6, -1.805e-6, 2.887e-7
-0.522, 1.026e-9, -3.569e-8, -3.671e-8, -2.090e-6, -1.804e-6, 2.860e-7
-0.523, 9.523e-10, -3.571e-8, -3.666e-8, -2.085e-6, -1.802e-6, 2.833e-7
-0.524, 8.876e-10, -3.573e-8, -3.662e-8, -2.081e-6, -1.801e-6, 2.805e-7
-0.525, 8.243e-10, -3.576e-8, -3.658e-8, -2.077e-6, -1.799e-6, 2.778e-7
-0.526, 7.728e-10, -3.577e-8, -3.654e-8, -2.073e-6, -1.798e-6, 2.751e-7
-0.527, 7.222e-10, -3.578e-8, -3.650e-8, -2.068e-6, -1.796e-6, 2.724e-7
-0.528, 6.758e-10, -3.579e-8, -3.646e-8, -2.064e-6, -1.794e-6, 2.696e-7
-0.529, 6.346e-10, -3.579e-8, -3.643e-8, -2.060e-6, -1.793e-6, 2.669e-7
-0.530, 6.082e-10, -3.580e-8, -3.641e-8, -2.055e-6, -1.791e-6, 2.642e-7
-0.531, 5.846e-10, -3.579e-8, -3.638e-8, -2.051e-6, -1.790e-6, 2.614e-7
-0.532, 5.586e-10, -3.578e-8, -3.634e-8, -2.047e-6, -1.788e-6, 2.587e-7
-0.533, 5.186e-10, -3.579e-8, -3.630e-8, -2.042e-6, -1.786e-6, 2.560e-7
-0.534, 4.707e-10, -3.579e-8, -3.626e-8, -2.038e-6, -1.785e-6, 2.532e-7
-0.535, 4.283e-10, -3.580e-8, -3.623e-8, -2.034e-6, -1.783e-6, 2.505e-7
-0.536, 3.901e-10, -3.581e-8, -3.620e-8, -2.029e-6, -1.781e-6, 2.478e-7
-0.537, 3.352e-10, -3.583e-8, -3.617e-8, -2.025e-6, -1.780e-6, 2.451e-7
-0.538, 2.795e-10, -3.585e-8, -3.613e-8, -2.020e-6, -1.778e-6, 2.424e-7
-0.539, 2.361e-10, -3.587e-8, -3.610e-8, -2.016e-6, -1.776e-6, 2.396e-7
-0.540, 1.891e-10, -3.588e-8, -3.607e-8, -2.011e-6, -1.774e-6, 2.369e-7
-0.541, 1.433e-10, -3.590e-8, -3.604e-8, -2.007e-6, -1.773e-6, 2.342e-7
-0.542, 1.109e-10, -3.590e-8, -3.601e-8, -2.002e-6, -1.771e-6, 2.314e-7
-0.543, 8.726e-11, -3.591e-8, -3.599e-8, -1.998e-6, -1.769e-6, 2.286e-7
-0.544, 6.639e-11, -3.591e-8, -3.598e-8, -1.993e-6, -1.767e-6, 2.258e-7
-0.545, 4.424e-11, -3.591e-8, -3.595e-8, -1.988e-6, -1.765e-6, 2.229e-7
-0.546, 2.058e-11, -3.591e-8, -3.593e-8, -1.984e-6, -1.764e-6, 2.200e-7
-0.547, -2.593e-12, -3.592e-8, -3.592e-8, -1.979e-6, -1.762e-6, 2.171e-7
-0.548, -1.323e-11, -3.592e-8, -3.590e-8, -1.974e-6, -1.760e-6, 2.142e-7
-0.549, -2.444e-11, -3.591e-8, -3.589e-8, -1.969e-6, -1.758e-6, 2.112e-7
-0.550, -2.054e-11, -3.591e-8, -3.589e-8, -1.964e-6, -1.756e-6, 2.082e-7
-0.551, -2.361e-11, -3.592e-8, -3.590e-8, -1.959e-6, -1.754e-6, 2.051e-7
-0.552, -2.892e-11, -3.593e-8, -3.591e-8, -1.954e-6, -1.752e-6, 2.021e-7
-0.553, -1.980e-11, -3.594e-8, -3.592e-8, -1.949e-6, -1.750e-6, 1.990e-7
-0.554, 7.324e-12, -3.593e-8, -3.594e-8, -1.944e-6, -1.748e-6, 1.960e-7
-0.555, 4.607e-11, -3.591e-8, -3.596e-8, -1.939e-6, -1.746e-6, 1.930e-7
-0.556, 8.801e-11, -3.589e-8, -3.598e-8, -1.935e-6, -1.745e-6, 1.900e-7
-0.557, 1.352e-10, -3.585e-8, -3.599e-8, -1.930e-6, -1.743e-6, 1.871e-7
-0.558, 1.969e-10, -3.581e-8, -3.600e-8, -1.925e-6, -1.741e-6, 1.841e-7
-0.559, 2.663e-10, -3.575e-8, -3.602e-8, -1.920e-6, -1.739e-6, 1.811e-7
-0.560, 3.402e-10, -3.570e-8, -3.604e-8, -1.915e-6, -1.737e-6, 1.782e-7
-0.561, 4.091e-10, -3.565e-8, -3.606e-8, -1.910e-6, -1.735e-6, 1.753e-7
-0.562, 4.942e-10, -3.559e-8, -3.609e-8, -1.905e-6, -1.733e-6, 1.723e-7
-0.563, 5.792e-10, -3.554e-8, -3.612e-8, -1.901e-6, -1.731e-6, 1.694e-7
-0.564, 6.609e-10, -3.548e-8, -3.614e-8, -1.896e-6, -1.729e-6, 1.665e-7
-0.565, 7.444e-10, -3.541e-8, -3.616e-8, -1.891e-6, -1.727e-6, 1.636e-7
-0.566, 8.377e-10, -3.535e-8, -3.618e-8, -1.886e-6, -1.726e-6, 1.608e-7
-0.567, 9.223e-10, -3.528e-8, -3.621e-8, -1.882e-6, -1.724e-6, 1.579e-7
-0.568, 1.004e-9, -3.522e-8, -3.622e-8, -1.877e-6, -1.722e-6, 1.551e-7
-0.569, 1.084e-9, -3.517e-8, -3.625e-8, -1.872e-6, -1.720e-6, 1.523e-7
-0.570, 1.169e-9, -3.511e-8, -3.628e-8, -1.868e-6, -1.718e-6, 1.495e-7
-0.571, 1.254e-9, -3.506e-8, -3.631e-8, -1.863e-6, -1.716e-6, 1.468e-7
-0.572, 1.348e-9, -3.500e-8, -3.635e-8, -1.859e-6, -1.715e-6, 1.441e-7
-0.573, 1.433e-9, -3.494e-8, -3.638e-8, -1.854e-6, -1.713e-6, 1.414e-7
-0.574, 1.513e-9, -3.489e-8, -3.640e-8, -1.850e-6, -1.711e-6, 1.388e-7
-0.575, 1.579e-9, -3.485e-8, -3.643e-8, -1.846e-6, -1.710e-6, 1.362e-7
-0.576, 1.647e-9, -3.480e-8, -3.645e-8, -1.842e-6, -1.708e-6, 1.335e-7
-0.577, 1.701e-9, -3.476e-8, -3.646e-8, -1.837e-6, -1.707e-6, 1.310e-7
-0.578, 1.745e-9, -3.473e-8, -3.647e-8, -1.833e-6, -1.705e-6, 1.284e-7
-0.579, 1.780e-9, -3.470e-8, -3.648e-8, -1.829e-6, -1.703e-6, 1.259e-7
-0.580, 1.804e-9, -3.468e-8, -3.649e-8, -1.825e-6, -1.702e-6, 1.234e-7
-0.581, 1.812e-9, -3.467e-8, -3.648e-8, -1.821e-6, -1.700e-6, 1.210e-7
-0.582, 1.820e-9, -3.467e-8, -3.649e-8, -1.818e-6, -1.699e-6, 1.185e-7
-0.583, 1.831e-9, -3.465e-8, -3.648e-8, -1.814e-6, -1.698e-6, 1.161e-7
-0.584, 1.841e-9, -3.464e-8, -3.648e-8, -1.810e-6, -1.696e-6, 1.137e-7
-0.585, 1.842e-9, -3.464e-8, -3.648e-8, -1.806e-6, -1.695e-6, 1.113e-7
-0.586, 1.845e-9, -3.463e-8, -3.647e-8, -1.802e-6, -1.693e-6, 1.089e-7
-0.587, 1.857e-9, -3.462e-8, -3.648e-8, -1.799e-6, -1.692e-6, 1.065e-7
-0.588, 1.863e-9, -3.462e-8, -3.648e-8, -1.795e-6, -1.691e-6, 1.041e-7
-0.589, 1.880e-9, -3.461e-8, -3.649e-8, -1.791e-6, -1.689e-6, 1.017e-7
-0.590, 1.899e-9, -3.459e-8, -3.649e-8, -1.787e-6, -1.688e-6, 9.935e-8
-0.591, 1.912e-9, -3.458e-8, -3.650e-8, -1.784e-6, -1.687e-6, 9.698e-8
-0.592, 1.921e-9, -3.458e-8, -3.650e-8, -1.780e-6, -1.686e-6, 9.462e-8
-0.593, 1.928e-9, -3.457e-8, -3.650e-8, -1.777e-6, -1.684e-6, 9.230e-8
-0.594, 1.942e-9, -3.457e-8, -3.652e-8, -1.773e-6, -1.683e-6, 8.999e-8
-0.595, 1.961e-9, -3.458e-8, -3.654e-8, -1.770e-6, -1.682e-6, 8.768e-8
-0.596, 1.971e-9, -3.459e-8, -3.656e-8, -1.766e-6, -1.681e-6, 8.539e-8
-0.597, 1.973e-9, -3.462e-8, -3.659e-8, -1.763e-6, -1.680e-6, 8.309e-8
-0.598, 1.977e-9, -3.465e-8, -3.663e-8, -1.760e-6, -1.679e-6, 8.085e-8
-0.599, 1.972e-9, -3.469e-8, -3.666e-8, -1.756e-6, -1.678e-6, 7.864e-8
-0.600, 1.968e-9, -3.471e-8, -3.668e-8, -1.753e-6, -1.677e-6, 7.645e-8
-0.601, 1.971e-9, -3.474e-8, -3.671e-8, -1.750e-6, -1.676e-6, 7.428e-8
-0.602, 1.976e-9, -3.476e-8, -3.674e-8, -1.747e-6, -1.675e-6, 7.213e-8
-0.603, 1.975e-9, -3.479e-8, -3.676e-8, -1.744e-6, -1.674e-6, 7.000e-8
-0.604, 1.965e-9, -3.482e-8, -3.678e-8, -1.741e-6, -1.673e-6, 6.788e-8
-0.605, 1.958e-9, -3.484e-8, -3.680e-8, -1.738e-6, -1.672e-6, 6.577e-8
-0.606, 1.954e-9, -3.486e-8, -3.682e-8, -1.735e-6, -1.671e-6, 6.369e-8
-0.607, 1.946e-9, -3.490e-8, -3.685e-8, -1.732e-6, -1.670e-6, 6.161e-8
-0.608, 1.932e-9, -3.494e-8, -3.688e-8, -1.729e-6, -1.670e-6, 5.956e-8
-0.609, 1.920e-9, -3.498e-8, -3.690e-8, -1.726e-6, -1.669e-6, 5.751e-8
-0.610, 1.910e-9, -3.503e-8, -3.694e-8, -1.724e-6, -1.668e-6, 5.547e-8
-0.611, 1.880e-9, -3.507e-8, -3.695e-8, -1.721e-6, -1.668e-6, 5.346e-8
-0.612, 1.847e-9, -3.512e-8, -3.697e-8, -1.718e-6, -1.667e-6, 5.143e-8
-0.613, 1.806e-9, -3.518e-8, -3.699e-8, -1.716e-6, -1.666e-6, 4.944e-8
-0.614, 1.758e-9, -3.524e-8, -3.700e-8, -1.713e-6, -1.666e-6, 4.744e-8
-0.615, 1.697e-9, -3.531e-8, -3.701e-8, -1.711e-6, -1.665e-6, 4.547e-8
-0.616, 1.645e-9, -3.537e-8, -3.701e-8, -1.708e-6, -1.665e-6, 4.350e-8
-0.617, 1.595e-9, -3.543e-8, -3.702e-8, -1.706e-6, -1.664e-6, 4.155e-8
-0.618, 1.544e-9, -3.548e-8, -3.702e-8, -1.704e-6, -1.664e-6, 3.963e-8
-0.619, 1.488e-9, -3.554e-8, -3.702e-8, -1.701e-6, -1.664e-6, 3.771e-8
-0.620, 1.440e-9, -3.558e-8, -3.702e-8, -1.699e-6, -1.663e-6, 3.581e-8
-0.621, 1.369e-9, -3.564e-8, -3.701e-8, -1.697e-6, -1.663e-6, 3.391e-8
-0.622, 1.289e-9, -3.569e-8, -3.698e-8, -1.695e-6, -1.663e-6, 3.202e-8
-0.623, 1.215e-9, -3.574e-8, -3.696e-8, -1.693e-6, -1.663e-6, 3.016e-8
-0.624, 1.147e-9, -3.578e-8, -3.692e-8, -1.691e-6, -1.663e-6, 2.829e-8
-0.625, 1.068e-9, -3.581e-8, -3.688e-8, -1.689e-6, -1.662e-6, 2.644e-8
-0.626, 1.002e-9, -3.584e-8, -3.684e-8, -1.687e-6, -1.662e-6, 2.459e-8
-0.627, 9.422e-10, -3.586e-8, -3.680e-8, -1.685e-6, -1.662e-6, 2.276e-8
-0.628, 8.756e-10, -3.587e-8, -3.675e-8, -1.683e-6, -1.662e-6, 2.093e-8
-0.629, 8.177e-10, -3.587e-8, -3.669e-8, -1.681e-6, -1.662e-6, 1.910e-8
-0.630, 7.721e-10, -3.586e-8, -3.663e-8, -1.680e-6, -1.662e-6, 1.728e-8
-0.631, 7.354e-10, -3.583e-8, -3.657e-8, -1.678e-6, -1.662e-6, 1.547e-8
-0.632, 7.001e-10, -3.581e-8, -3.651e-8, -1.676e-6, -1.663e-6, 1.367e-8
-0.633, 6.583e-10, -3.578e-8, -3.644e-8, -1.675e-6, -1.663e-6, 1.188e-8
-0.634, 6.162e-10, -3.576e-8, -3.637e-8, -1.673e-6, -1.663e-6, 1.008e-8
-0.635, 5.845e-10, -3.572e-8, -3.630e-8, -1.671e-6, -1.663e-6, 8.309e-9
-0.636, 5.542e-10, -3.567e-8, -3.623e-8, -1.670e-6, -1.663e-6, 6.565e-9
-0.637, 5.318e-10, -3.562e-8, -3.615e-8, -1.668e-6, -1.663e-6, 4.818e-9
-0.638, 4.954e-10, -3.558e-8, -3.608e-8, -1.667e-6, -1.664e-6, 3.093e-9
-0.639, 4.557e-10, -3.555e-8, -3.600e-8, -1.665e-6, -1.664e-6, 1.354e-9
-0.640, 4.154e-10, -3.552e-8, -3.593e-8, -1.664e-6, -1.664e-6, -3.667e-10
-0.641, 3.793e-10, -3.550e-8, -3.588e-8, -1.663e-6, -1.665e-6, -2.065e-9
-0.642, 3.435e-10, -3.548e-8, -3.582e-8, -1.662e-6, -1.665e-6, -3.769e-9
-0.643, 3.061e-10, -3.546e-8, -3.577e-8, -1.660e-6, -1.666e-6, -5.450e-9
-0.644, 2.641e-10, -3.546e-8, -3.573e-8, -1.659e-6, -1.666e-6, -7.120e-9
-0.645, 2.309e-10, -3.546e-8, -3.569e-8, -1.658e-6, -1.667e-6, -8.780e-9
-0.646, 1.968e-10, -3.545e-8, -3.565e-8, -1.657e-6, -1.667e-6, -1.043e-8
-0.647, 1.698e-10, -3.545e-8, -3.562e-8, -1.656e-6, -1.668e-6, -1.208e-8
-0.648, 1.558e-10, -3.543e-8, -3.559e-8, -1.655e-6, -1.668e-6, -1.370e-8
-0.649, 1.568e-10, -3.542e-8, -3.558e-8, -1.654e-6, -1.669e-6, -1.532e-8
-0.650, 1.569e-10, -3.541e-8, -3.556e-8, -1.653e-6, -1.670e-6, -1.694e-8
-0.651, 1.455e-10, -3.540e-8, -3.554e-8, -1.652e-6, -1.670e-6, -1.855e-8
-0.652, 1.384e-10, -3.539e-8, -3.553e-8, -1.651e-6, -1.671e-6, -2.016e-8
-0.653, 1.344e-10, -3.539e-8, -3.553e-8, -1.650e-6, -1.672e-6, -2.177e-8
-0.654, 1.300e-10, -3.540e-8, -3.553e-8, -1.650e-6, -1.673e-6, -2.338e-8
-0.655, 1.231e-10, -3.541e-8, -3.553e-8, -1.649e-6, -1.674e-6, -2.500e-8
-0.656, 1.121e-10, -3.542e-8, -3.553e-8, -1.648e-6, -1.675e-6, -2.662e-8
-0.657, 1.006e-10, -3.543e-8, -3.553e-8, -1.648e-6, -1.676e-6, -2.825e-8
-0.658, 8.631e-11, -3.545e-8, -3.554e-8, -1.647e-6, -1.677e-6, -2.987e-8
-0.659, 6.729e-11, -3.547e-8, -3.554e-8, -1.647e-6, -1.678e-6, -3.150e-8
-0.660, 5.152e-11, -3.550e-8, -3.555e-8, -1.646e-6, -1.679e-6, -3.313e-8
-0.661, 3.265e-11, -3.553e-8, -3.556e-8, -1.646e-6, -1.681e-6, -3.475e-8
-0.662, 1.595e-11, -3.555e-8, -3.557e-8, -1.646e-6, -1.682e-6, -3.638e-8
-0.663, 2.696e-12, -3.558e-8, -3.558e-8, -1.645e-6, -1.683e-6, -3.801e-8
-0.664, -5.095e-12, -3.560e-8, -3.560e-8, -1.645e-6, -1.685e-6, -3.964e-8
-0.665, -1.496e-11, -3.563e-8, -3.561e-8, -1.645e-6, -1.686e-6, -4.128e-8
-0.666, -2.685e-11, -3.565e-8, -3.563e-8, -1.645e-6, -1.688e-6, -4.291e-8
-0.667, -3.775e-11, -3.568e-8, -3.564e-8, -1.645e-6, -1.689e-6, -4.454e-8
-0.668, -4.754e-11, -3.571e-8, -3.566e-8, -1.644e-6, -1.691e-6, -4.618e-8
-0.669, -6.724e-11, -3.573e-8, -3.566e-8, -1.644e-6, -1.692e-6, -4.781e-8
-0.670, -7.711e-11, -3.575e-8, -3.567e-8, -1.644e-6, -1.694e-6, -4.945e-8
-0.671, -7.843e-11, -3.576e-8, -3.568e-8, -1.644e-6, -1.695e-6, -5.107e-8
-0.672, -8.178e-11, -3.577e-8, -3.569e-8, -1.644e-6, -1.697e-6, -5.271e-8
-0.673, -8.475e-11, -3.578e-8, -3.570e-8, -1.644e-6, -1.699e-6, -5.434e-8
-0.674, -8.029e-11, -3.579e-8, -3.571e-8, -1.645e-6, -1.701e-6, -5.597e-8
-0.675, -7.933e-11, -3.579e-8, -3.571e-8, -1.645e-6, -1.702e-6, -5.760e-8
-0.676, -7.991e-11, -3.579e-8, -3.571e-8, -1.645e-6, -1.704e-6, -5.922e-8
-0.677, -7.443e-11, -3.579e-8, -3.572e-8, -1.645e-6, -1.706e-6, -6.082e-8
-0.678, -6.798e-11, -3.580e-8, -3.573e-8, -1.645e-6, -1.708e-6, -6.241e-8
-0.679, -6.055e-11, -3.580e-8, -3.574e-8, -1.645e-6, -1.709e-6, -6.399e-8
-0.680, -5.214e-11, -3.580e-8, -3.574e-8, -1.646e-6, -1.711e-6, -6.557e-8
-0.681, -4.276e-11, -3.579e-8, -3.575e-8, -1.646e-6, -1.713e-6, -6.715e-8
-0.682, -3.240e-11, -3.579e-8, -3.576e-8, -1.646e-6, -1.715e-6, -6.872e-8
-0.683, -2.107e-11, -3.578e-8, -3.576e-8, -1.646e-6, -1.717e-6, -7.029e-8
-0.684, -8.762e-12, -3.578e-8, -3.577e-8, -1.647e-6, -1.719e-6, -7.186e-8
-0.685, 4.522e-12, -3.577e-8, -3.578e-8, -1.647e-6, -1.721e-6, -7.342e-8
-0.686, 1.878e-11, -3.576e-8, -3.578e-8, -1.648e-6, -1.723e-6, -7.498e-8
-0.687, 3.402e-11, -3.575e-8, -3.579e-8, -1.648e-6, -1.724e-6, -7.653e-8
-0.688, 5.023e-11, -3.574e-8, -3.579e-8, -1.648e-6, -1.726e-6, -7.808e-8
-0.689, 6.741e-11, -3.573e-8, -3.580e-8, -1.649e-6, -1.729e-6, -7.962e-8
-0.690, 8.557e-11, -3.572e-8, -3.580e-8, -1.649e-6, -1.731e-6, -8.117e-8
-0.691, 1.047e-10, -3.570e-8, -3.581e-8, -1.650e-6, -1.733e-6, -8.270e-8
-0.692, 1.248e-10, -3.569e-8, -3.581e-8, -1.651e-6, -1.735e-6, -8.424e-8
-0.693, 1.459e-10, -3.567e-8, -3.582e-8, -1.651e-6, -1.737e-6, -8.577e-8
-0.694, 1.680e-10, -3.565e-8, -3.582e-8, -1.652e-6, -1.739e-6, -8.729e-8
-0.695, 1.910e-10, -3.564e-8, -3.583e-8, -1.652e-6, -1.741e-6, -8.881e-8
-0.696, 2.150e-10, -3.562e-8, -3.583e-8, -1.653e-6, -1.743e-6, -9.033e-8
-0.697, 2.400e-10, -3.559e-8, -3.583e-8, -1.654e-6, -1.746e-6, -9.184e-8
-0.698, 2.660e-10, -3.557e-8, -3.584e-8, -1.655e-6, -1.748e-6, -9.335e-8
-0.699, 2.929e-10, -3.555e-8, -3.584e-8, -1.655e-6, -1.750e-6, -9.486e-8
-0.700, 3.208e-10, -3.552e-8, -3.584e-8, -1.656e-6, -1.752e-6, -9.636e-8
