Nov. 3, 2022   13:23:28
Square Wave Voltammetry
File: c:\users\fatemeh\onedrive - university of waterloo\ideation lab\experiments\antibiotic detection\vancomycin sensing (mahmoud's project)\vancomycin animal experiments\nov3.22\nov3.22\e#2\in animal\10 min\nov3, e#2, 10 min, m4, text file.txt
Data Source:  Experiment
Instrument Model:  CHI1040C
Data Proc:  Smoothing
Header: 
Note: 

Init E (V) = 0.2
Final E (V) = -0.7
Incr E (V) = 0.001
Amplitude (V) = 0.025
Frequency (Hz) = 100
Quiet Time (sec) = 20
Sensitivity (A/V) = 1e-4

E3 Scan On
Sens 3 = 1e-006

Results:

Channel 1:
Difference:

Forward:

Reverse:

Channel 3:
Difference:

Forward:

Reverse:

Potential/V, i1d/A, i1f/A, i1r/A, i3d/A, i3f/A, i3r/A

0.199, -2.895e-9, -3.735e-8, -3.445e-8, -1.042e-6, -7.116e-8, 9.711e-7
0.198, -2.644e-9, -3.724e-8, -3.460e-8, -1.041e-6, -7.943e-8, 9.614e-7
0.197, -2.403e-9, -3.714e-8, -3.473e-8, -1.039e-6, -8.752e-8, 9.518e-7
0.196, -2.170e-9, -3.703e-8, -3.486e-8, -1.038e-6, -9.542e-8, 9.424e-7
0.195, -1.947e-9, -3.694e-8, -3.499e-8, -1.036e-6, -1.031e-7, 9.332e-7
0.194, -1.734e-9, -3.684e-8, -3.511e-8, -1.035e-6, -1.107e-7, 9.241e-7
0.193, -1.530e-9, -3.675e-8, -3.522e-8, -1.033e-6, -1.180e-7, 9.152e-7
0.192, -1.335e-9, -3.666e-8, -3.533e-8, -1.032e-6, -1.252e-7, 9.064e-7
0.191, -1.149e-9, -3.658e-8, -3.543e-8, -1.030e-6, -1.322e-7, 8.977e-7
0.190, -9.732e-10, -3.649e-8, -3.552e-8, -1.028e-6, -1.390e-7, 8.892e-7
0.189, -8.064e-10, -3.641e-8, -3.561e-8, -1.026e-6, -1.456e-7, 8.809e-7
0.188, -6.490e-10, -3.634e-8, -3.569e-8, -1.025e-6, -1.520e-7, 8.727e-7
0.187, -5.009e-10, -3.627e-8, -3.577e-8, -1.023e-6, -1.582e-7, 8.647e-7
0.186, -3.622e-10, -3.620e-8, -3.584e-8, -1.021e-6, -1.643e-7, 8.568e-7
0.185, -2.328e-10, -3.613e-8, -3.590e-8, -1.019e-6, -1.702e-7, 8.491e-7
0.184, -1.128e-10, -3.607e-8, -3.596e-8, -1.017e-6, -1.758e-7, 8.416e-7
0.183, -2.164e-12, -3.601e-8, -3.601e-8, -1.016e-6, -1.813e-7, 8.342e-7
0.182, 9.915e-11, -3.595e-8, -3.605e-8, -1.014e-6, -1.867e-7, 8.269e-7
0.181, 1.911e-10, -3.590e-8, -3.609e-8, -1.012e-6, -1.918e-7, 8.198e-7
0.180, 2.737e-10, -3.585e-8, -3.613e-8, -1.010e-6, -1.967e-7, 8.128e-7
0.179, 3.470e-10, -3.581e-8, -3.615e-8, -1.008e-6, -2.015e-7, 8.061e-7
0.178, 4.108e-10, -3.576e-8, -3.617e-8, -1.005e-6, -2.061e-7, 7.994e-7
0.177, 4.654e-10, -3.572e-8, -3.619e-8, -1.003e-6, -2.105e-7, 7.929e-7
0.176, 5.106e-10, -3.569e-8, -3.620e-8, -1.001e-6, -2.147e-7, 7.866e-7
0.175, 5.464e-10, -3.565e-8, -3.620e-8, -9.991e-7, -2.187e-7, 7.804e-7
0.174, 5.343e-10, -3.561e-8, -3.614e-8, -9.924e-7, -2.169e-7, 7.756e-7
0.173, 7.143e-10, -3.553e-8, -3.625e-8, -9.899e-7, -2.195e-7, 7.704e-7
0.172, 7.573e-10, -3.556e-8, -3.632e-8, -9.877e-7, -2.224e-7, 7.653e-7
0.171, 4.540e-10, -3.573e-8, -3.618e-8, -9.856e-7, -2.251e-7, 7.604e-7
0.170, 5.211e-10, -3.560e-8, -3.612e-8, -9.833e-7, -2.281e-7, 7.552e-7
0.169, 6.244e-10, -3.555e-8, -3.618e-8, -9.812e-7, -2.312e-7, 7.500e-7
0.168, 5.750e-10, -3.554e-8, -3.612e-8, -9.789e-7, -2.342e-7, 7.448e-7
0.167, 6.414e-10, -3.549e-8, -3.614e-8, -9.773e-7, -2.371e-7, 7.402e-7
0.166, 5.870e-10, -3.552e-8, -3.611e-8, -9.748e-7, -2.396e-7, 7.352e-7
0.165, 4.637e-10, -3.571e-8, -3.618e-8, -9.720e-7, -2.420e-7, 7.300e-7
0.164, 4.942e-10, -3.568e-8, -3.617e-8, -9.697e-7, -2.442e-7, 7.255e-7
0.163, 5.613e-10, -3.558e-8, -3.614e-8, -9.676e-7, -2.465e-7, 7.211e-7
0.162, 7.105e-10, -3.554e-8, -3.625e-8, -9.657e-7, -2.488e-7, 7.169e-7
0.161, 6.909e-10, -3.543e-8, -3.612e-8, -9.634e-7, -2.512e-7, 7.122e-7
0.160, 6.681e-10, -3.539e-8, -3.606e-8, -9.612e-7, -2.535e-7, 7.078e-7
0.159, 9.114e-10, -3.516e-8, -3.607e-8, -9.592e-7, -2.556e-7, 7.036e-7
0.158, 7.831e-10, -3.519e-8, -3.598e-8, -9.577e-7, -2.580e-7, 6.997e-7
0.157, 5.347e-10, -3.523e-8, -3.577e-8, -9.561e-7, -2.601e-7, 6.960e-7
0.156, 6.535e-10, -3.501e-8, -3.566e-8, -9.544e-7, -2.624e-7, 6.920e-7
0.155, 7.303e-10, -3.494e-8, -3.567e-8, -9.523e-7, -2.645e-7, 6.878e-7
0.154, 7.262e-10, -3.487e-8, -3.559e-8, -9.510e-7, -2.668e-7, 6.841e-7
0.153, 5.307e-10, -3.497e-8, -3.550e-8, -9.493e-7, -2.688e-7, 6.805e-7
0.152, 2.819e-10, -3.507e-8, -3.536e-8, -9.474e-7, -2.707e-7, 6.767e-7
0.151, 1.104e-10, -3.524e-8, -3.535e-8, -9.457e-7, -2.729e-7, 6.728e-7
0.150, 2.349e-10, -3.509e-8, -3.532e-8, -9.442e-7, -2.749e-7, 6.692e-7
0.149, 3.823e-10, -3.499e-8, -3.537e-8, -9.426e-7, -2.768e-7, 6.657e-7
0.148, 3.609e-10, -3.497e-8, -3.533e-8, -9.412e-7, -2.789e-7, 6.623e-7
0.147, 3.431e-10, -3.485e-8, -3.520e-8, -9.400e-7, -2.810e-7, 6.589e-7
0.146, 2.820e-10, -3.479e-8, -3.507e-8, -9.388e-7, -2.831e-7, 6.557e-7
0.145, 2.128e-10, -3.481e-8, -3.502e-8, -9.376e-7, -2.853e-7, 6.523e-7
0.144, 3.792e-10, -3.471e-8, -3.509e-8, -9.368e-7, -2.874e-7, 6.494e-7
0.143, 3.559e-10, -3.478e-8, -3.514e-8, -9.361e-7, -2.896e-7, 6.466e-7
0.142, 5.294e-10, -3.461e-8, -3.514e-8, -9.350e-7, -2.916e-7, 6.434e-7
0.141, 6.471e-10, -3.465e-8, -3.530e-8, -9.341e-7, -2.939e-7, 6.402e-7
0.140, 8.324e-10, -3.462e-8, -3.546e-8, -9.330e-7, -2.961e-7, 6.370e-7
0.139, 8.366e-10, -3.460e-8, -3.544e-8, -9.327e-7, -2.983e-7, 6.344e-7
0.138, 9.270e-10, -3.461e-8, -3.554e-8, -9.317e-7, -3.002e-7, 6.315e-7
0.137, 8.455e-10, -3.477e-8, -3.561e-8, -9.311e-7, -3.024e-7, 6.287e-7
0.136, 7.887e-10, -3.480e-8, -3.559e-8, -9.301e-7, -3.046e-7, 6.255e-7
0.135, 6.208e-10, -3.491e-8, -3.553e-8, -9.294e-7, -3.066e-7, 6.228e-7
0.134, 5.795e-10, -3.507e-8, -3.565e-8, -9.286e-7, -3.086e-7, 6.200e-7
0.133, 4.596e-10, -3.512e-8, -3.558e-8, -9.277e-7, -3.106e-7, 6.172e-7
0.132, 5.269e-10, -3.523e-8, -3.576e-8, -9.269e-7, -3.124e-7, 6.145e-7
0.131, 5.086e-10, -3.531e-8, -3.582e-8, -9.262e-7, -3.144e-7, 6.118e-7
0.130, 5.609e-10, -3.540e-8, -3.596e-8, -9.255e-7, -3.164e-7, 6.091e-7
0.129, 2.747e-10, -3.567e-8, -3.594e-8, -9.251e-7, -3.185e-7, 6.066e-7
0.128, 4.917e-11, -3.587e-8, -3.592e-8, -9.250e-7, -3.208e-7, 6.042e-7
0.127, 3.363e-11, -3.590e-8, -3.593e-8, -9.244e-7, -3.226e-7, 6.018e-7
0.126, -1.671e-10, -3.597e-8, -3.581e-8, -9.237e-7, -3.245e-7, 5.992e-7
0.125, -3.261e-10, -3.609e-8, -3.577e-8, -9.233e-7, -3.266e-7, 5.967e-7
0.124, -4.679e-10, -3.632e-8, -3.585e-8, -9.225e-7, -3.284e-7, 5.941e-7
0.123, -6.859e-10, -3.640e-8, -3.572e-8, -9.220e-7, -3.304e-7, 5.916e-7
0.122, -5.851e-10, -3.621e-8, -3.562e-8, -9.219e-7, -3.322e-7, 5.897e-7
0.121, -6.090e-10, -3.629e-8, -3.569e-8, -9.214e-7, -3.339e-7, 5.876e-7
0.120, -6.105e-10, -3.627e-8, -3.566e-8, -9.205e-7, -3.352e-7, 5.854e-7
0.119, -4.676e-10, -3.616e-8, -3.570e-8, -9.201e-7, -3.366e-7, 5.834e-7
0.118, -6.895e-10, -3.630e-8, -3.561e-8, -9.193e-7, -3.381e-7, 5.811e-7
0.117, -5.530e-10, -3.612e-8, -3.556e-8, -9.188e-7, -3.396e-7, 5.792e-7
0.116, -4.362e-10, -3.606e-8, -3.562e-8, -9.180e-7, -3.410e-7, 5.770e-7
0.115, -4.479e-10, -3.600e-8, -3.555e-8, -9.174e-7, -3.428e-7, 5.747e-7
0.114, -4.430e-10, -3.603e-8, -3.559e-8, -9.173e-7, -3.444e-7, 5.729e-7
0.113, -3.965e-10, -3.586e-8, -3.547e-8, -9.167e-7, -3.459e-7, 5.708e-7
0.112, -2.374e-10, -3.562e-8, -3.539e-8, -9.164e-7, -3.473e-7, 5.691e-7
0.111, -3.033e-10, -3.564e-8, -3.534e-8, -9.163e-7, -3.490e-7, 5.673e-7
0.110, -4.295e-10, -3.567e-8, -3.524e-8, -9.160e-7, -3.507e-7, 5.654e-7
0.109, -2.389e-10, -3.532e-8, -3.508e-8, -9.159e-7, -3.523e-7, 5.636e-7
0.108, -6.549e-11, -3.509e-8, -3.502e-8, -9.158e-7, -3.538e-7, 5.620e-7
0.107, -1.911e-10, -3.513e-8, -3.494e-8, -9.158e-7, -3.552e-7, 5.605e-7
0.106, -6.556e-11, -3.507e-8, -3.500e-8, -9.158e-7, -3.567e-7, 5.591e-7
0.105, -2.190e-10, -3.505e-8, -3.483e-8, -9.151e-7, -3.578e-7, 5.573e-7
0.104, -4.118e-11, -3.491e-8, -3.487e-8, -9.151e-7, -3.594e-7, 5.557e-7
0.103, 3.192e-10, -3.462e-8, -3.494e-8, -9.152e-7, -3.610e-7, 5.542e-7
0.102, 6.116e-10, -3.425e-8, -3.486e-8, -9.152e-7, -3.623e-7, 5.530e-7
0.101, 7.494e-10, -3.416e-8, -3.491e-8, -9.151e-7, -3.636e-7, 5.515e-7
0.100, 8.229e-10, -3.395e-8, -3.477e-8, -9.150e-7, -3.650e-7, 5.501e-7
0.099, 1.041e-9, -3.376e-8, -3.480e-8, -9.153e-7, -3.664e-7, 5.489e-7
0.098, 1.247e-9, -3.374e-8, -3.499e-8, -9.155e-7, -3.680e-7, 5.475e-7
0.097, 1.450e-9, -3.366e-8, -3.511e-8, -9.158e-7, -3.697e-7, 5.461e-7
0.096, 1.628e-9, -3.358e-8, -3.521e-8, -9.164e-7, -3.716e-7, 5.448e-7
0.095, 1.453e-9, -3.364e-8, -3.510e-8, -9.164e-7, -3.730e-7, 5.434e-7
0.094, 1.870e-9, -3.344e-8, -3.531e-8, -9.167e-7, -3.748e-7, 5.419e-7
0.093, 1.932e-9, -3.346e-8, -3.540e-8, -9.169e-7, -3.766e-7, 5.403e-7
0.092, 1.697e-9, -3.359e-8, -3.529e-8, -9.171e-7, -3.783e-7, 5.388e-7
0.091, 1.469e-9, -3.382e-8, -3.529e-8, -9.170e-7, -3.797e-7, 5.373e-7
0.090, 1.309e-9, -3.386e-8, -3.517e-8, -9.171e-7, -3.812e-7, 5.360e-7
0.089, 1.424e-9, -3.392e-8, -3.535e-8, -9.175e-7, -3.829e-7, 5.346e-7
0.088, 1.464e-9, -3.374e-8, -3.520e-8, -9.172e-7, -3.843e-7, 5.330e-7
0.087, 1.303e-9, -3.389e-8, -3.519e-8, -9.174e-7, -3.858e-7, 5.317e-7
0.086, 1.018e-9, -3.416e-8, -3.518e-8, -9.175e-7, -3.874e-7, 5.301e-7
0.085, 9.823e-10, -3.429e-8, -3.528e-8, -9.179e-7, -3.891e-7, 5.289e-7
0.084, 1.108e-9, -3.435e-8, -3.546e-8, -9.182e-7, -3.908e-7, 5.275e-7
0.083, 1.081e-9, -3.449e-8, -3.557e-8, -9.184e-7, -3.923e-7, 5.261e-7
0.082, 1.013e-9, -3.457e-8, -3.558e-8, -9.186e-7, -3.940e-7, 5.247e-7
0.081, 9.392e-10, -3.468e-8, -3.562e-8, -9.190e-7, -3.957e-7, 5.233e-7
0.080, 9.114e-10, -3.457e-8, -3.548e-8, -9.188e-7, -3.972e-7, 5.216e-7
0.079, 9.878e-10, -3.462e-8, -3.561e-8, -9.182e-7, -3.984e-7, 5.197e-7
0.078, 6.615e-10, -3.485e-8, -3.552e-8, -9.180e-7, -3.999e-7, 5.181e-7
0.077, 5.769e-10, -3.501e-8, -3.558e-8, -9.182e-7, -4.016e-7, 5.166e-7
0.076, 4.623e-10, -3.507e-8, -3.553e-8, -9.181e-7, -4.031e-7, 5.151e-7
0.075, 4.587e-10, -3.498e-8, -3.544e-8, -9.184e-7, -4.047e-7, 5.138e-7
0.074, 4.970e-10, -3.481e-8, -3.530e-8, -9.183e-7, -4.061e-7, 5.122e-7
0.073, 3.990e-10, -3.504e-8, -3.544e-8, -9.179e-7, -4.074e-7, 5.105e-7
0.072, 4.139e-10, -3.495e-8, -3.537e-8, -9.182e-7, -4.090e-7, 5.092e-7
0.071, 4.029e-10, -3.502e-8, -3.542e-8, -9.184e-7, -4.106e-7, 5.078e-7
0.070, 4.188e-10, -3.500e-8, -3.542e-8, -9.181e-7, -4.121e-7, 5.061e-7
0.069, 5.531e-10, -3.491e-8, -3.547e-8, -9.185e-7, -4.135e-7, 5.050e-7
0.068, 4.968e-10, -3.493e-8, -3.542e-8, -9.188e-7, -4.152e-7, 5.036e-7
0.067, 6.463e-10, -3.473e-8, -3.538e-8, -9.197e-7, -4.171e-7, 5.026e-7
0.066, 9.000e-10, -3.454e-8, -3.544e-8, -9.199e-7, -4.184e-7, 5.015e-7
0.065, 8.855e-10, -3.449e-8, -3.538e-8, -9.200e-7, -4.199e-7, 5.001e-7
0.064, 9.924e-10, -3.447e-8, -3.546e-8, -9.203e-7, -4.214e-7, 4.989e-7
0.063, 8.548e-10, -3.457e-8, -3.542e-8, -9.204e-7, -4.230e-7, 4.974e-7
0.062, 7.510e-10, -3.453e-8, -3.528e-8, -9.206e-7, -4.243e-7, 4.963e-7
0.061, 5.078e-10, -3.459e-8, -3.510e-8, -9.213e-7, -4.258e-7, 4.955e-7
0.060, 4.350e-10, -3.465e-8, -3.509e-8, -9.213e-7, -4.269e-7, 4.944e-7
0.059, 4.360e-10, -3.469e-8, -3.512e-8, -9.217e-7, -4.284e-7, 4.934e-7
0.058, 3.958e-10, -3.464e-8, -3.504e-8, -9.218e-7, -4.297e-7, 4.922e-7
0.057, 2.449e-10, -3.458e-8, -3.482e-8, -9.222e-7, -4.310e-7, 4.912e-7
0.056, 5.403e-10, -3.446e-8, -3.500e-8, -9.231e-7, -4.328e-7, 4.904e-7
0.055, 7.899e-10, -3.428e-8, -3.507e-8, -9.236e-7, -4.342e-7, 4.894e-7
0.054, 7.285e-10, -3.434e-8, -3.507e-8, -9.243e-7, -4.358e-7, 4.885e-7
0.053, 7.645e-10, -3.437e-8, -3.513e-8, -9.246e-7, -4.373e-7, 4.874e-7
0.052, 8.159e-10, -3.431e-8, -3.512e-8, -9.252e-7, -4.388e-7, 4.864e-7
0.051, 9.288e-10, -3.431e-8, -3.524e-8, -9.261e-7, -4.405e-7, 4.856e-7
0.050, 9.894e-10, -3.431e-8, -3.530e-8, -9.269e-7, -4.423e-7, 4.847e-7
0.049, 9.989e-10, -3.416e-8, -3.516e-8, -9.278e-7, -4.441e-7, 4.838e-7
0.048, 8.340e-10, -3.423e-8, -3.507e-8, -9.284e-7, -4.455e-7, 4.829e-7
0.047, 7.558e-10, -3.423e-8, -3.499e-8, -9.291e-7, -4.471e-7, 4.820e-7
0.046, 1.101e-9, -3.402e-8, -3.512e-8, -9.303e-7, -4.491e-7, 4.812e-7
0.045, 9.593e-10, -3.392e-8, -3.488e-8, -9.310e-7, -4.506e-7, 4.804e-7
0.044, 1.032e-9, -3.392e-8, -3.495e-8, -9.317e-7, -4.521e-7, 4.796e-7
0.043, 9.356e-10, -3.397e-8, -3.490e-8, -9.324e-7, -4.536e-7, 4.789e-7
0.042, 8.337e-10, -3.387e-8, -3.471e-8, -9.339e-7, -4.555e-7, 4.784e-7
0.041, 7.552e-10, -3.403e-8, -3.478e-8, -9.353e-7, -4.575e-7, 4.777e-7
0.040, 5.192e-10, -3.405e-8, -3.457e-8, -9.362e-7, -4.593e-7, 4.769e-7
0.039, 3.202e-10, -3.435e-8, -3.467e-8, -9.374e-7, -4.611e-7, 4.763e-7
0.038, 1.044e-10, -3.453e-8, -3.463e-8, -9.387e-7, -4.630e-7, 4.757e-7
0.037, 1.240e-10, -3.458e-8, -3.471e-8, -9.396e-7, -4.646e-7, 4.749e-7
0.036, 9.115e-11, -3.470e-8, -3.479e-8, -9.406e-7, -4.666e-7, 4.740e-7
0.035, -9.591e-12, -3.478e-8, -3.477e-8, -9.413e-7, -4.681e-7, 4.732e-7
0.034, -1.024e-10, -3.486e-8, -3.476e-8, -9.423e-7, -4.699e-7, 4.724e-7
0.033, -2.558e-11, -3.492e-8, -3.489e-8, -9.430e-7, -4.715e-7, 4.715e-7
0.032, -2.331e-10, -3.500e-8, -3.477e-8, -9.438e-7, -4.732e-7, 4.706e-7
0.031, -5.814e-10, -3.532e-8, -3.474e-8, -9.451e-7, -4.749e-7, 4.701e-7
0.030, -7.814e-10, -3.543e-8, -3.465e-8, -9.461e-7, -4.767e-7, 4.695e-7
0.029, -9.184e-10, -3.542e-8, -3.450e-8, -9.474e-7, -4.785e-7, 4.689e-7
0.028, -9.815e-10, -3.543e-8, -3.445e-8, -9.485e-7, -4.803e-7, 4.681e-7
0.027, -9.479e-10, -3.549e-8, -3.454e-8, -9.496e-7, -4.822e-7, 4.675e-7
0.026, -1.052e-9, -3.560e-8, -3.455e-8, -9.507e-7, -4.841e-7, 4.666e-7
0.025, -1.135e-9, -3.587e-8, -3.474e-8, -9.520e-7, -4.858e-7, 4.662e-7
0.024, -1.073e-9, -3.582e-8, -3.475e-8, -9.535e-7, -4.877e-7, 4.659e-7
0.023, -1.134e-9, -3.601e-8, -3.488e-8, -9.545e-7, -4.894e-7, 4.651e-7
0.022, -1.269e-9, -3.617e-8, -3.490e-8, -9.560e-7, -4.913e-7, 4.647e-7
0.021, -1.123e-9, -3.615e-8, -3.503e-8, -9.581e-7, -4.935e-7, 4.646e-7
0.020, -1.021e-9, -3.614e-8, -3.511e-8, -9.591e-7, -4.952e-7, 4.639e-7
0.019, -1.067e-9, -3.623e-8, -3.516e-8, -9.602e-7, -4.969e-7, 4.634e-7
0.018, -1.338e-9, -3.641e-8, -3.507e-8, -9.610e-7, -4.985e-7, 4.626e-7
0.017, -1.614e-9, -3.655e-8, -3.494e-8, -9.622e-7, -5.002e-7, 4.620e-7
0.016, -1.751e-9, -3.668e-8, -3.493e-8, -9.638e-7, -5.020e-7, 4.618e-7
0.015, -2.061e-9, -3.681e-8, -3.475e-8, -9.646e-7, -5.035e-7, 4.611e-7
0.014, -2.315e-9, -3.702e-8, -3.470e-8, -9.662e-7, -5.054e-7, 4.608e-7
0.013, -2.303e-9, -3.701e-8, -3.471e-8, -9.677e-7, -5.072e-7, 4.605e-7
0.012, -2.366e-9, -3.698e-8, -3.461e-8, -9.691e-7, -5.090e-7, 4.601e-7
0.011, -2.542e-9, -3.717e-8, -3.463e-8, -9.708e-7, -5.110e-7, 4.598e-7
0.010, -2.480e-9, -3.716e-8, -3.468e-8, -9.723e-7, -5.128e-7, 4.595e-7
0.009, -2.579e-9, -3.724e-8, -3.466e-8, -9.740e-7, -5.148e-7, 4.592e-7
0.008, -2.258e-9, -3.699e-8, -3.473e-8, -9.756e-7, -5.167e-7, 4.588e-7
0.007, -2.308e-9, -3.701e-8, -3.470e-8, -9.768e-7, -5.184e-7, 4.584e-7
0.006, -2.414e-9, -3.702e-8, -3.461e-8, -9.784e-7, -5.202e-7, 4.582e-7
0.005, -2.168e-9, -3.681e-8, -3.464e-8, -9.798e-7, -5.218e-7, 4.580e-7
0.004, -2.106e-9, -3.673e-8, -3.462e-8, -9.816e-7, -5.238e-7, 4.578e-7
0.003, -1.990e-9, -3.654e-8, -3.455e-8, -9.834e-7, -5.258e-7, 4.576e-7
0.002, -1.840e-9, -3.636e-8, -3.452e-8, -9.851e-7, -5.278e-7, 4.573e-7
0.001, -1.881e-9, -3.613e-8, -3.425e-8, -9.867e-7, -5.299e-7, 4.568e-7
-0.000, -1.859e-9, -3.617e-8, -3.431e-8, -9.884e-7, -5.318e-7, 4.566e-7
-0.001, -1.967e-9, -3.616e-8, -3.420e-8, -9.904e-7, -5.340e-7, 4.564e-7
-0.002, -2.031e-9, -3.612e-8, -3.409e-8, -9.926e-7, -5.361e-7, 4.565e-7
-0.003, -2.065e-9, -3.606e-8, -3.400e-8, -9.947e-7, -5.381e-7, 4.566e-7
-0.004, -2.098e-9, -3.615e-8, -3.405e-8, -9.965e-7, -5.401e-7, 4.564e-7
-0.005, -2.125e-9, -3.627e-8, -3.415e-8, -9.986e-7, -5.422e-7, 4.564e-7
-0.006, -1.995e-9, -3.621e-8, -3.421e-8, -1.001e-6, -5.445e-7, 4.562e-7
-0.007, -1.900e-9, -3.606e-8, -3.416e-8, -1.003e-6, -5.467e-7, 4.560e-7
-0.008, -1.845e-9, -3.604e-8, -3.419e-8, -1.005e-6, -5.488e-7, 4.559e-7
-0.009, -1.846e-9, -3.612e-8, -3.427e-8, -1.006e-6, -5.508e-7, 4.557e-7
-0.010, -1.947e-9, -3.614e-8, -3.420e-8, -1.008e-6, -5.528e-7, 4.554e-7
-0.011, -1.707e-9, -3.595e-8, -3.424e-8, -1.010e-6, -5.550e-7, 4.551e-7
-0.012, -1.701e-9, -3.591e-8, -3.421e-8, -1.012e-6, -5.572e-7, 4.550e-7
-0.013, -1.558e-9, -3.576e-8, -3.420e-8, -1.014e-6, -5.588e-7, 4.547e-7
-0.014, -1.423e-9, -3.562e-8, -3.420e-8, -1.016e-6, -5.612e-7, 4.545e-7
-0.015, -1.504e-9, -3.559e-8, -3.408e-8, -1.017e-6, -5.634e-7, 4.541e-7
-0.016, -1.497e-9, -3.542e-8, -3.393e-8, -1.020e-6, -5.659e-7, 4.536e-7
-0.017, -1.250e-9, -3.534e-8, -3.409e-8, -1.022e-6, -5.682e-7, 4.534e-7
-0.018, -1.124e-9, -3.527e-8, -3.414e-8, -1.023e-6, -5.705e-7, 4.529e-7
-0.019, -9.400e-10, -3.512e-8, -3.418e-8, -1.025e-6, -5.729e-7, 4.525e-7
-0.020, -7.648e-10, -3.508e-8, -3.431e-8, -1.027e-6, -5.750e-7, 4.520e-7
-0.021, -6.164e-10, -3.516e-8, -3.454e-8, -1.029e-6, -5.774e-7, 4.518e-7
-0.022, -2.546e-10, -3.505e-8, -3.479e-8, -1.031e-6, -5.797e-7, 4.516e-7
-0.023, 1.136e-10, -3.490e-8, -3.501e-8, -1.034e-6, -5.818e-7, 4.518e-7
-0.024, 4.149e-10, -3.483e-8, -3.524e-8, -1.036e-6, -5.845e-7, 4.516e-7
-0.025, 4.469e-10, -3.491e-8, -3.535e-8, -1.038e-6, -5.868e-7, 4.513e-7
-0.026, 7.887e-10, -3.464e-8, -3.543e-8, -1.040e-6, -5.893e-7, 4.512e-7
-0.027, 1.109e-9, -3.440e-8, -3.551e-8, -1.043e-6, -5.919e-7, 4.508e-7
-0.028, 9.177e-10, -3.446e-8, -3.538e-8, -1.045e-6, -5.941e-7, 4.505e-7
-0.029, 9.581e-10, -3.444e-8, -3.540e-8, -1.047e-6, -5.967e-7, 4.502e-7
-0.030, 8.975e-10, -3.453e-8, -3.543e-8, -1.049e-6, -5.990e-7, 4.502e-7
-0.031, 1.091e-9, -3.450e-8, -3.559e-8, -1.052e-6, -6.016e-7, 4.501e-7
-0.032, 1.041e-9, -3.462e-8, -3.566e-8, -1.054e-6, -6.042e-7, 4.502e-7
-0.033, 8.673e-10, -3.472e-8, -3.559e-8, -1.056e-6, -6.065e-7, 4.499e-7
-0.034, 8.695e-10, -3.474e-8, -3.561e-8, -1.059e-6, -6.091e-7, 4.500e-7
-0.035, 8.602e-10, -3.480e-8, -3.566e-8, -1.061e-6, -6.115e-7, 4.499e-7
-0.036, 6.585e-10, -3.493e-8, -3.559e-8, -1.064e-6, -6.139e-7, 4.500e-7
-0.037, 7.413e-10, -3.500e-8, -3.575e-8, -1.066e-6, -6.161e-7, 4.499e-7
-0.038, 7.489e-10, -3.491e-8, -3.566e-8, -1.068e-6, -6.186e-7, 4.499e-7
-0.039, 7.134e-10, -3.494e-8, -3.565e-8, -1.071e-6, -6.213e-7, 4.498e-7
-0.040, 7.623e-10, -3.495e-8, -3.571e-8, -1.073e-6, -6.235e-7, 4.496e-7
-0.041, 6.238e-10, -3.512e-8, -3.574e-8, -1.076e-6, -6.261e-7, 4.498e-7
-0.042, 6.640e-10, -3.509e-8, -3.576e-8, -1.079e-6, -6.286e-7, 4.500e-7
-0.043, 4.986e-10, -3.516e-8, -3.566e-8, -1.081e-6, -6.309e-7, 4.498e-7
-0.044, 2.536e-10, -3.529e-8, -3.555e-8, -1.084e-6, -6.338e-7, 4.499e-7
-0.045, 2.588e-10, -3.519e-8, -3.545e-8, -1.086e-6, -6.364e-7, 4.500e-7
-0.046, -9.198e-11, -3.539e-8, -3.530e-8, -1.089e-6, -6.390e-7, 4.501e-7
-0.047, -2.054e-10, -3.540e-8, -3.519e-8, -1.091e-6, -6.414e-7, 4.500e-7
-0.048, -3.035e-10, -3.559e-8, -3.529e-8, -1.095e-6, -6.443e-7, 4.505e-7
-0.049, -3.924e-10, -3.561e-8, -3.522e-8, -1.098e-6, -6.470e-7, 4.508e-7
-0.050, -1.161e-10, -3.551e-8, -3.539e-8, -1.101e-6, -6.496e-7, 4.510e-7
-0.051, 5.909e-11, -3.535e-8, -3.541e-8, -1.103e-6, -6.523e-7, 4.512e-7
-0.052, 3.298e-11, -3.544e-8, -3.548e-8, -1.106e-6, -6.549e-7, 4.512e-7
-0.053, 1.018e-10, -3.544e-8, -3.554e-8, -1.109e-6, -6.577e-7, 4.517e-7
-0.054, -1.258e-10, -3.555e-8, -3.543e-8, -1.113e-6, -6.608e-7, 4.521e-7
-0.055, -6.886e-11, -3.555e-8, -3.548e-8, -1.116e-6, -6.635e-7, 4.524e-7
-0.056, 4.347e-11, -3.563e-8, -3.567e-8, -1.119e-6, -6.661e-7, 4.526e-7
-0.057, 3.747e-11, -3.562e-8, -3.565e-8, -1.122e-6, -6.688e-7, 4.529e-7
-0.058, 1.862e-10, -3.560e-8, -3.579e-8, -1.125e-6, -6.718e-7, 4.534e-7
-0.059, 2.370e-10, -3.547e-8, -3.570e-8, -1.128e-6, -6.748e-7, 4.533e-7
-0.060, 2.545e-10, -3.545e-8, -3.571e-8, -1.131e-6, -6.773e-7, 4.535e-7
-0.061, 3.766e-10, -3.543e-8, -3.580e-8, -1.133e-6, -6.802e-7, 4.533e-7
-0.062, 1.672e-10, -3.552e-8, -3.569e-8, -1.136e-6, -6.830e-7, 4.533e-7
-0.063, 1.108e-10, -3.559e-8, -3.570e-8, -1.139e-6, -6.857e-7, 4.534e-7
-0.064, 4.368e-10, -3.540e-8, -3.583e-8, -1.142e-6, -6.887e-7, 4.537e-7
-0.065, 4.922e-10, -3.557e-8, -3.606e-8, -1.146e-6, -6.917e-7, 4.540e-7
-0.066, 4.568e-10, -3.553e-8, -3.599e-8, -1.149e-6, -6.948e-7, 4.545e-7
-0.067, 6.444e-10, -3.553e-8, -3.617e-8, -1.153e-6, -6.981e-7, 4.548e-7
-0.068, 5.731e-10, -3.572e-8, -3.630e-8, -1.156e-6, -7.011e-7, 4.554e-7
-0.069, 5.453e-10, -3.576e-8, -3.631e-8, -1.160e-6, -7.046e-7, 4.557e-7
-0.070, 7.528e-10, -3.567e-8, -3.642e-8, -1.163e-6, -7.076e-7, 4.557e-7
-0.071, 6.182e-10, -3.571e-8, -3.633e-8, -1.167e-6, -7.108e-7, 4.560e-7
-0.072, 6.369e-10, -3.568e-8, -3.631e-8, -1.170e-6, -7.141e-7, 4.560e-7
-0.073, 5.714e-10, -3.562e-8, -3.619e-8, -1.173e-6, -7.172e-7, 4.562e-7
-0.074, 4.976e-10, -3.564e-8, -3.614e-8, -1.177e-6, -7.204e-7, 4.564e-7
-0.075, 2.890e-10, -3.584e-8, -3.613e-8, -1.180e-6, -7.234e-7, 4.565e-7
-0.076, 2.427e-10, -3.592e-8, -3.616e-8, -1.183e-6, -7.264e-7, 4.565e-7
-0.077, 4.889e-10, -3.589e-8, -3.638e-8, -1.186e-6, -7.293e-7, 4.563e-7
-0.078, 4.570e-10, -3.585e-8, -3.631e-8, -1.189e-6, -7.325e-7, 4.566e-7
-0.079, 3.055e-10, -3.592e-8, -3.622e-8, -1.192e-6, -7.356e-7, 4.566e-7
-0.080, 2.221e-10, -3.590e-8, -3.613e-8, -1.195e-6, -7.385e-7, 4.566e-7
-0.081, 3.343e-10, -3.587e-8, -3.620e-8, -1.198e-6, -7.412e-7, 4.566e-7
-0.082, 3.497e-10, -3.583e-8, -3.618e-8, -1.201e-6, -7.440e-7, 4.566e-7
-0.083, 2.525e-10, -3.592e-8, -3.617e-8, -1.204e-6, -7.469e-7, 4.567e-7
-0.084, 3.923e-10, -3.580e-8, -3.619e-8, -1.207e-6, -7.499e-7, 4.567e-7
-0.085, 4.548e-10, -3.582e-8, -3.628e-8, -1.210e-6, -7.528e-7, 4.568e-7
-0.086, 6.832e-10, -3.577e-8, -3.646e-8, -1.213e-6, -7.560e-7, 4.570e-7
-0.087, 8.347e-10, -3.573e-8, -3.656e-8, -1.216e-6, -7.590e-7, 4.570e-7
-0.088, 6.754e-10, -3.578e-8, -3.646e-8, -1.219e-6, -7.617e-7, 4.572e-7
-0.089, 7.973e-10, -3.568e-8, -3.648e-8, -1.222e-6, -7.649e-7, 4.576e-7
-0.090, 7.890e-10, -3.559e-8, -3.638e-8, -1.225e-6, -7.677e-7, 4.577e-7
-0.091, 1.036e-9, -3.537e-8, -3.640e-8, -1.228e-6, -7.708e-7, 4.577e-7
-0.092, 1.086e-9, -3.532e-8, -3.641e-8, -1.232e-6, -7.740e-7, 4.580e-7
-0.093, 1.156e-9, -3.516e-8, -3.631e-8, -1.235e-6, -7.770e-7, 4.582e-7
-0.094, 1.094e-9, -3.510e-8, -3.619e-8, -1.239e-6, -7.802e-7, 4.583e-7
-0.095, 1.274e-9, -3.485e-8, -3.612e-8, -1.242e-6, -7.833e-7, 4.586e-7
-0.096, 1.324e-9, -3.478e-8, -3.611e-8, -1.246e-6, -7.867e-7, 4.590e-7
-0.097, 1.465e-9, -3.474e-8, -3.620e-8, -1.249e-6, -7.896e-7, 4.595e-7
-0.098, 1.569e-9, -3.466e-8, -3.622e-8, -1.253e-6, -7.928e-7, 4.600e-7
-0.099, 1.563e-9, -3.458e-8, -3.614e-8, -1.257e-6, -7.963e-7, 4.605e-7
-0.100, 1.762e-9, -3.456e-8, -3.632e-8, -1.261e-6, -7.995e-7, 4.612e-7
-0.101, 1.956e-9, -3.438e-8, -3.634e-8, -1.265e-6, -8.029e-7, 4.619e-7
-0.102, 2.109e-9, -3.446e-8, -3.657e-8, -1.269e-6, -8.064e-7, 4.624e-7
-0.103, 2.375e-9, -3.420e-8, -3.658e-8, -1.273e-6, -8.097e-7, 4.630e-7
-0.104, 2.543e-9, -3.422e-8, -3.677e-8, -1.277e-6, -8.132e-7, 4.635e-7
-0.105, 2.346e-9, -3.422e-8, -3.656e-8, -1.280e-6, -8.164e-7, 4.640e-7
-0.106, 2.313e-9, -3.421e-8, -3.653e-8, -1.284e-6, -8.196e-7, 4.645e-7
-0.107, 2.247e-9, -3.418e-8, -3.642e-8, -1.288e-6, -8.229e-7, 4.649e-7
-0.108, 2.058e-9, -3.434e-8, -3.640e-8, -1.292e-6, -8.262e-7, 4.658e-7
-0.109, 1.886e-9, -3.441e-8, -3.629e-8, -1.296e-6, -8.294e-7, 4.664e-7
-0.110, 1.783e-9, -3.452e-8, -3.631e-8, -1.300e-6, -8.329e-7, 4.673e-7
-0.111, 1.851e-9, -3.445e-8, -3.630e-8, -1.305e-6, -8.368e-7, 4.682e-7
-0.112, 1.856e-9, -3.440e-8, -3.625e-8, -1.310e-6, -8.408e-7, 4.689e-7
-0.113, 1.600e-9, -3.463e-8, -3.623e-8, -1.314e-6, -8.445e-7, 4.697e-7
-0.114, 1.360e-9, -3.467e-8, -3.603e-8, -1.319e-6, -8.482e-7, 4.705e-7
-0.115, 1.147e-9, -3.483e-8, -3.598e-8, -1.323e-6, -8.516e-7, 4.710e-7
-0.116, 8.956e-10, -3.495e-8, -3.584e-8, -1.326e-6, -8.546e-7, 4.716e-7
-0.117, 8.402e-10, -3.500e-8, -3.584e-8, -1.330e-6, -8.581e-7, 4.722e-7
-0.118, 6.814e-10, -3.514e-8, -3.582e-8, -1.334e-6, -8.614e-7, 4.728e-7
-0.119, 4.351e-10, -3.527e-8, -3.571e-8, -1.339e-6, -8.651e-7, 4.738e-7
-0.120, 4.217e-10, -3.521e-8, -3.563e-8, -1.343e-6, -8.687e-7, 4.744e-7
-0.121, 3.555e-10, -3.531e-8, -3.566e-8, -1.347e-6, -8.719e-7, 4.752e-7
-0.122, 1.245e-10, -3.554e-8, -3.567e-8, -1.351e-6, -8.751e-7, 4.756e-7
-0.123, 3.515e-10, -3.549e-8, -3.584e-8, -1.355e-6, -8.785e-7, 4.761e-7
-0.124, 2.840e-10, -3.552e-8, -3.581e-8, -1.359e-6, -8.821e-7, 4.768e-7
-0.125, 1.365e-11, -3.567e-8, -3.568e-8, -1.363e-6, -8.855e-7, 4.774e-7
-0.126, -1.651e-10, -3.571e-8, -3.555e-8, -1.367e-6, -8.891e-7, 4.781e-7
-0.127, -2.364e-10, -3.580e-8, -3.557e-8, -1.371e-6, -8.924e-7, 4.788e-7
-0.128, -2.595e-10, -3.584e-8, -3.558e-8, -1.375e-6, -8.958e-7, 4.794e-7
-0.129, -2.690e-10, -3.599e-8, -3.572e-8, -1.380e-6, -8.993e-7, 4.802e-7
-0.130, -3.163e-10, -3.601e-8, -3.569e-8, -1.384e-6, -9.029e-7, 4.807e-7
-0.131, -4.650e-10, -3.607e-8, -3.561e-8, -1.388e-6, -9.064e-7, 4.815e-7
-0.132, -4.625e-10, -3.602e-8, -3.556e-8, -1.392e-6, -9.099e-7, 4.819e-7
-0.133, -4.173e-10, -3.603e-8, -3.561e-8, -1.396e-6, -9.135e-7, 4.828e-7
-0.134, -5.991e-10, -3.610e-8, -3.550e-8, -1.400e-6, -9.169e-7, 4.832e-7
-0.135, -6.980e-10, -3.618e-8, -3.549e-8, -1.404e-6, -9.202e-7, 4.837e-7
-0.136, -6.012e-10, -3.611e-8, -3.551e-8, -1.408e-6, -9.236e-7, 4.845e-7
-0.137, -5.019e-10, -3.602e-8, -3.552e-8, -1.412e-6, -9.272e-7, 4.849e-7
-0.138, -6.287e-10, -3.602e-8, -3.539e-8, -1.416e-6, -9.304e-7, 4.854e-7
-0.139, -6.250e-10, -3.596e-8, -3.534e-8, -1.420e-6, -9.339e-7, 4.859e-7
-0.140, -9.196e-10, -3.609e-8, -3.517e-8, -1.424e-6, -9.375e-7, 4.865e-7
-0.141, -7.901e-10, -3.589e-8, -3.510e-8, -1.428e-6, -9.411e-7, 4.869e-7
-0.142, -7.325e-10, -3.580e-8, -3.507e-8, -1.432e-6, -9.447e-7, 4.871e-7
-0.143, -5.662e-10, -3.566e-8, -3.509e-8, -1.436e-6, -9.480e-7, 4.878e-7
-0.144, -2.814e-10, -3.560e-8, -3.532e-8, -1.440e-6, -9.515e-7, 4.884e-7
-0.145, -2.780e-10, -3.565e-8, -3.538e-8, -1.444e-6, -9.548e-7, 4.892e-7
-0.146, -7.847e-11, -3.551e-8, -3.543e-8, -1.449e-6, -9.586e-7, 4.900e-7
-0.147, 4.067e-11, -3.544e-8, -3.548e-8, -1.453e-6, -9.623e-7, 4.904e-7
-0.148, 2.994e-10, -3.535e-8, -3.565e-8, -1.457e-6, -9.659e-7, 4.913e-7
-0.149, 1.812e-10, -3.540e-8, -3.559e-8, -1.461e-6, -9.694e-7, 4.918e-7
-0.150, 2.234e-10, -3.553e-8, -3.575e-8, -1.465e-6, -9.727e-7, 4.924e-7
-0.151, 4.752e-10, -3.540e-8, -3.587e-8, -1.469e-6, -9.758e-7, 4.929e-7
-0.152, 6.895e-10, -3.524e-8, -3.593e-8, -1.472e-6, -9.788e-7, 4.932e-7
-0.153, 4.993e-10, -3.516e-8, -3.566e-8, -1.475e-6, -9.818e-7, 4.934e-7
-0.154, 7.411e-10, -3.508e-8, -3.582e-8, -1.479e-6, -9.850e-7, 4.937e-7
-0.155, 7.356e-10, -3.516e-8, -3.590e-8, -1.482e-6, -9.882e-7, 4.941e-7
-0.156, 7.981e-10, -3.504e-8, -3.584e-8, -1.486e-6, -9.910e-7, 4.947e-7
-0.157, 9.286e-10, -3.503e-8, -3.596e-8, -1.489e-6, -9.941e-7, 4.950e-7
-0.158, 9.102e-10, -3.505e-8, -3.596e-8, -1.493e-6, -9.973e-7, 4.955e-7
-0.159, 9.248e-10, -3.484e-8, -3.577e-8, -1.496e-6, -1.000e-6, 4.959e-7
-0.160, 9.057e-10, -3.483e-8, -3.573e-8, -1.499e-6, -1.003e-6, 4.961e-7
-0.161, 8.129e-10, -3.499e-8, -3.580e-8, -1.503e-6, -1.006e-6, 4.966e-7
-0.162, 6.463e-10, -3.506e-8, -3.571e-8, -1.506e-6, -1.009e-6, 4.969e-7
-0.163, 7.532e-10, -3.514e-8, -3.589e-8, -1.509e-6, -1.012e-6, 4.974e-7
-0.164, 5.976e-10, -3.524e-8, -3.584e-8, -1.513e-6, -1.015e-6, 4.979e-7
-0.165, 5.636e-10, -3.531e-8, -3.587e-8, -1.516e-6, -1.018e-6, 4.982e-7
-0.166, 3.998e-10, -3.533e-8, -3.573e-8, -1.519e-6, -1.021e-6, 4.985e-7
-0.167, 4.642e-10, -3.533e-8, -3.580e-8, -1.522e-6, -1.024e-6, 4.989e-7
-0.168, 7.672e-10, -3.531e-8, -3.608e-8, -1.525e-6, -1.026e-6, 4.993e-7
-0.169, 8.858e-10, -3.534e-8, -3.622e-8, -1.528e-6, -1.029e-6, 4.997e-7
-0.170, 6.107e-10, -3.550e-8, -3.612e-8, -1.531e-6, -1.031e-6, 4.998e-7
-0.171, 6.488e-10, -3.548e-8, -3.613e-8, -1.534e-6, -1.034e-6, 5.000e-7
-0.172, 3.972e-10, -3.560e-8, -3.600e-8, -1.538e-6, -1.037e-6, 5.004e-7
-0.173, 3.703e-10, -3.573e-8, -3.610e-8, -1.541e-6, -1.040e-6, 5.007e-7
-0.174, 5.688e-10, -3.569e-8, -3.626e-8, -1.544e-6, -1.043e-6, 5.009e-7
-0.175, 4.707e-10, -3.568e-8, -3.615e-8, -1.547e-6, -1.046e-6, 5.011e-7
-0.176, 3.260e-10, -3.575e-8, -3.607e-8, -1.550e-6, -1.049e-6, 5.012e-7
-0.177, 4.656e-10, -3.576e-8, -3.623e-8, -1.554e-6, -1.052e-6, 5.015e-7
-0.178, 3.155e-10, -3.576e-8, -3.608e-8, -1.557e-6, -1.055e-6, 5.016e-7
-0.179, 3.313e-10, -3.575e-8, -3.608e-8, -1.560e-6, -1.058e-6, 5.018e-7
-0.180, 5.919e-10, -3.568e-8, -3.627e-8, -1.563e-6, -1.061e-6, 5.018e-7
-0.181, 7.735e-10, -3.557e-8, -3.635e-8, -1.566e-6, -1.064e-6, 5.020e-7
-0.182, 5.938e-10, -3.557e-8, -3.616e-8, -1.568e-6, -1.067e-6, 5.020e-7
-0.183, 8.593e-10, -3.544e-8, -3.630e-8, -1.572e-6, -1.070e-6, 5.024e-7
-0.184, 8.397e-10, -3.541e-8, -3.625e-8, -1.575e-6, -1.073e-6, 5.026e-7
-0.185, 6.134e-10, -3.543e-8, -3.605e-8, -1.578e-6, -1.076e-6, 5.025e-7
-0.186, 6.830e-10, -3.540e-8, -3.608e-8, -1.582e-6, -1.079e-6, 5.027e-7
-0.187, 9.150e-10, -3.526e-8, -3.617e-8, -1.585e-6, -1.082e-6, 5.028e-7
-0.188, 8.435e-10, -3.529e-8, -3.613e-8, -1.588e-6, -1.085e-6, 5.028e-7
-0.189, 8.381e-10, -3.527e-8, -3.610e-8, -1.591e-6, -1.088e-6, 5.028e-7
-0.190, 9.486e-10, -3.527e-8, -3.622e-8, -1.594e-6, -1.091e-6, 5.031e-7
-0.191, 9.554e-10, -3.525e-8, -3.620e-8, -1.597e-6, -1.094e-6, 5.036e-7
-0.192, 7.941e-10, -3.537e-8, -3.617e-8, -1.601e-6, -1.097e-6, 5.040e-7
-0.193, 7.252e-10, -3.534e-8, -3.607e-8, -1.604e-6, -1.100e-6, 5.043e-7
-0.194, 8.694e-10, -3.524e-8, -3.611e-8, -1.608e-6, -1.104e-6, 5.046e-7
-0.195, 8.441e-10, -3.519e-8, -3.604e-8, -1.611e-6, -1.107e-6, 5.046e-7
-0.196, 7.910e-10, -3.515e-8, -3.594e-8, -1.615e-6, -1.110e-6, 5.048e-7
-0.197, 7.589e-10, -3.515e-8, -3.591e-8, -1.618e-6, -1.113e-6, 5.050e-7
-0.198, 1.120e-9, -3.489e-8, -3.601e-8, -1.621e-6, -1.116e-6, 5.052e-7
-0.199, 1.242e-9, -3.482e-8, -3.606e-8, -1.624e-6, -1.119e-6, 5.053e-7
-0.200, 1.186e-9, -3.477e-8, -3.595e-8, -1.627e-6, -1.122e-6, 5.051e-7
-0.201, 1.140e-9, -3.490e-8, -3.604e-8, -1.630e-6, -1.125e-6, 5.054e-7
-0.202, 1.103e-9, -3.490e-8, -3.601e-8, -1.634e-6, -1.128e-6, 5.059e-7
-0.203, 9.419e-10, -3.493e-8, -3.587e-8, -1.637e-6, -1.131e-6, 5.065e-7
-0.204, 8.918e-10, -3.486e-8, -3.576e-8, -1.641e-6, -1.134e-6, 5.069e-7
-0.205, 7.733e-10, -3.485e-8, -3.562e-8, -1.644e-6, -1.137e-6, 5.071e-7
-0.206, 7.826e-10, -3.473e-8, -3.552e-8, -1.648e-6, -1.140e-6, 5.075e-7
-0.207, 8.785e-10, -3.465e-8, -3.553e-8, -1.651e-6, -1.144e-6, 5.078e-7
-0.208, 6.142e-10, -3.487e-8, -3.549e-8, -1.655e-6, -1.147e-6, 5.082e-7
-0.209, 6.669e-10, -3.500e-8, -3.566e-8, -1.659e-6, -1.150e-6, 5.088e-7
-0.210, 5.187e-10, -3.505e-8, -3.557e-8, -1.662e-6, -1.153e-6, 5.091e-7
-0.211, 7.234e-10, -3.495e-8, -3.567e-8, -1.666e-6, -1.156e-6, 5.097e-7
-0.212, 6.139e-10, -3.485e-8, -3.546e-8, -1.670e-6, -1.159e-6, 5.101e-7
-0.213, 5.984e-10, -3.480e-8, -3.540e-8, -1.673e-6, -1.162e-6, 5.106e-7
-0.214, 6.154e-10, -3.480e-8, -3.542e-8, -1.676e-6, -1.166e-6, 5.109e-7
-0.215, 7.762e-10, -3.483e-8, -3.560e-8, -1.680e-6, -1.169e-6, 5.114e-7
-0.216, 9.638e-10, -3.482e-8, -3.578e-8, -1.684e-6, -1.172e-6, 5.121e-7
-0.217, 9.261e-10, -3.474e-8, -3.566e-8, -1.688e-6, -1.176e-6, 5.126e-7
-0.218, 7.313e-10, -3.493e-8, -3.566e-8, -1.692e-6, -1.179e-6, 5.131e-7
-0.219, 1.064e-9, -3.477e-8, -3.583e-8, -1.696e-6, -1.183e-6, 5.135e-7
-0.220, 1.082e-9, -3.482e-8, -3.590e-8, -1.700e-6, -1.186e-6, 5.139e-7
-0.221, 1.204e-9, -3.486e-8, -3.606e-8, -1.704e-6, -1.189e-6, 5.142e-7
-0.222, 1.205e-9, -3.475e-8, -3.596e-8, -1.707e-6, -1.193e-6, 5.144e-7
-0.223, 1.311e-9, -3.464e-8, -3.595e-8, -1.711e-6, -1.196e-6, 5.149e-7
-0.224, 1.540e-9, -3.459e-8, -3.613e-8, -1.715e-6, -1.200e-6, 5.152e-7
-0.225, 1.648e-9, -3.462e-8, -3.626e-8, -1.718e-6, -1.203e-6, 5.155e-7
-0.226, 1.820e-9, -3.452e-8, -3.634e-8, -1.722e-6, -1.206e-6, 5.158e-7
-0.227, 2.114e-9, -3.427e-8, -3.638e-8, -1.724e-6, -1.209e-6, 5.159e-7
-0.228, 2.049e-9, -3.427e-8, -3.632e-8, -1.727e-6, -1.211e-6, 5.161e-7
-0.229, 1.765e-9, -3.434e-8, -3.611e-8, -1.731e-6, -1.215e-6, 5.162e-7
-0.230, 1.868e-9, -3.433e-8, -3.620e-8, -1.734e-6, -1.218e-6, 5.164e-7
-0.231, 1.758e-9, -3.453e-8, -3.628e-8, -1.737e-6, -1.221e-6, 5.165e-7
-0.232, 1.533e-9, -3.464e-8, -3.617e-8, -1.740e-6, -1.223e-6, 5.162e-7
-0.233, 1.563e-9, -3.452e-8, -3.608e-8, -1.742e-6, -1.226e-6, 5.161e-7
-0.234, 1.690e-9, -3.459e-8, -3.628e-8, -1.745e-6, -1.229e-6, 5.162e-7
-0.235, 1.307e-9, -3.478e-8, -3.609e-8, -1.747e-6, -1.231e-6, 5.161e-7
-0.236, 1.092e-9, -3.494e-8, -3.603e-8, -1.751e-6, -1.235e-6, 5.162e-7
-0.237, 1.030e-9, -3.507e-8, -3.610e-8, -1.754e-6, -1.238e-6, 5.160e-7
-0.238, 1.013e-9, -3.499e-8, -3.600e-8, -1.757e-6, -1.241e-6, 5.159e-7
-0.239, 9.404e-10, -3.498e-8, -3.592e-8, -1.760e-6, -1.244e-6, 5.157e-7
-0.240, 9.345e-10, -3.499e-8, -3.592e-8, -1.763e-6, -1.248e-6, 5.155e-7
-0.241, 1.169e-9, -3.492e-8, -3.609e-8, -1.766e-6, -1.251e-6, 5.151e-7
-0.242, 1.147e-9, -3.498e-8, -3.613e-8, -1.769e-6, -1.254e-6, 5.150e-7
-0.243, 1.146e-9, -3.504e-8, -3.619e-8, -1.772e-6, -1.257e-6, 5.149e-7
-0.244, 1.076e-9, -3.516e-8, -3.623e-8, -1.774e-6, -1.260e-6, 5.144e-7
-0.245, 1.200e-9, -3.525e-8, -3.645e-8, -1.777e-6, -1.263e-6, 5.140e-7
-0.246, 1.236e-9, -3.535e-8, -3.659e-8, -1.780e-6, -1.266e-6, 5.138e-7
-0.247, 1.124e-9, -3.543e-8, -3.656e-8, -1.782e-6, -1.268e-6, 5.131e-7
-0.248, 1.131e-9, -3.538e-8, -3.651e-8, -1.784e-6, -1.271e-6, 5.127e-7
-0.249, 8.916e-10, -3.544e-8, -3.633e-8, -1.787e-6, -1.274e-6, 5.125e-7
-0.250, 1.070e-9, -3.526e-8, -3.633e-8, -1.789e-6, -1.277e-6, 5.122e-7
-0.251, 1.077e-9, -3.525e-8, -3.632e-8, -1.791e-6, -1.279e-6, 5.119e-7
-0.252, 9.945e-10, -3.531e-8, -3.631e-8, -1.793e-6, -1.281e-6, 5.112e-7
-0.253, 9.308e-10, -3.527e-8, -3.621e-8, -1.795e-6, -1.284e-6, 5.109e-7
-0.254, 6.850e-10, -3.540e-8, -3.609e-8, -1.798e-6, -1.287e-6, 5.104e-7
-0.255, 7.144e-10, -3.532e-8, -3.604e-8, -1.800e-6, -1.290e-6, 5.099e-7
-0.256, 7.254e-10, -3.532e-8, -3.604e-8, -1.802e-6, -1.292e-6, 5.094e-7
-0.257, 9.153e-10, -3.523e-8, -3.614e-8, -1.804e-6, -1.295e-6, 5.088e-7
-0.258, 7.040e-10, -3.518e-8, -3.588e-8, -1.806e-6, -1.298e-6, 5.078e-7
-0.259, 7.981e-10, -3.510e-8, -3.590e-8, -1.808e-6, -1.301e-6, 5.076e-7
-0.260, 6.278e-10, -3.500e-8, -3.563e-8, -1.810e-6, -1.303e-6, 5.071e-7
-0.261, 7.819e-10, -3.487e-8, -3.565e-8, -1.812e-6, -1.306e-6, 5.066e-7
-0.262, 9.319e-10, -3.489e-8, -3.583e-8, -1.814e-6, -1.308e-6, 5.060e-7
-0.263, 9.833e-10, -3.484e-8, -3.582e-8, -1.817e-6, -1.311e-6, 5.058e-7
-0.264, 1.277e-9, -3.468e-8, -3.596e-8, -1.819e-6, -1.314e-6, 5.052e-7
-0.265, 1.354e-9, -3.459e-8, -3.594e-8, -1.820e-6, -1.316e-6, 5.042e-7
-0.266, 1.547e-9, -3.455e-8, -3.610e-8, -1.821e-6, -1.318e-6, 5.034e-7
-0.267, 1.834e-9, -3.438e-8, -3.621e-8, -1.823e-6, -1.320e-6, 5.026e-7
-0.268, 1.741e-9, -3.449e-8, -3.623e-8, -1.825e-6, -1.323e-6, 5.020e-7
-0.269, 1.804e-9, -3.450e-8, -3.631e-8, -1.827e-6, -1.325e-6, 5.014e-7
-0.270, 1.860e-9, -3.435e-8, -3.620e-8, -1.828e-6, -1.328e-6, 5.008e-7
-0.271, 1.924e-9, -3.441e-8, -3.633e-8, -1.830e-6, -1.330e-6, 5.002e-7
-0.272, 1.850e-9, -3.448e-8, -3.633e-8, -1.832e-6, -1.332e-6, 4.994e-7
-0.273, 1.878e-9, -3.448e-8, -3.636e-8, -1.833e-6, -1.334e-6, 4.989e-7
-0.274, 1.792e-9, -3.445e-8, -3.624e-8, -1.835e-6, -1.337e-6, 4.981e-7
-0.275, 1.719e-9, -3.431e-8, -3.603e-8, -1.837e-6, -1.339e-6, 4.974e-7
-0.276, 1.436e-9, -3.448e-8, -3.592e-8, -1.839e-6, -1.342e-6, 4.970e-7
-0.277, 1.374e-9, -3.439e-8, -3.576e-8, -1.841e-6, -1.345e-6, 4.961e-7
-0.278, 1.566e-9, -3.420e-8, -3.576e-8, -1.842e-6, -1.347e-6, 4.957e-7
-0.279, 1.314e-9, -3.434e-8, -3.566e-8, -1.844e-6, -1.349e-6, 4.948e-7
-0.280, 1.412e-9, -3.427e-8, -3.568e-8, -1.846e-6, -1.352e-6, 4.943e-7
-0.281, 1.621e-9, -3.413e-8, -3.575e-8, -1.848e-6, -1.354e-6, 4.940e-7
-0.282, 1.277e-9, -3.438e-8, -3.566e-8, -1.851e-6, -1.358e-6, 4.935e-7
-0.283, 1.098e-9, -3.448e-8, -3.558e-8, -1.854e-6, -1.361e-6, 4.930e-7
-0.284, 1.286e-9, -3.437e-8, -3.566e-8, -1.858e-6, -1.365e-6, 4.925e-7
-0.285, 1.109e-9, -3.446e-8, -3.557e-8, -1.861e-6, -1.369e-6, 4.923e-7
-0.286, 1.082e-9, -3.446e-8, -3.554e-8, -1.864e-6, -1.372e-6, 4.922e-7
-0.287, 1.115e-9, -3.449e-8, -3.560e-8, -1.868e-6, -1.376e-6, 4.921e-7
-0.288, 1.093e-9, -3.444e-8, -3.553e-8, -1.873e-6, -1.380e-6, 4.924e-7
-0.289, 1.124e-9, -3.447e-8, -3.560e-8, -1.877e-6, -1.384e-6, 4.926e-7
-0.290, 1.088e-9, -3.458e-8, -3.567e-8, -1.880e-6, -1.388e-6, 4.925e-7
-0.291, 9.820e-10, -3.466e-8, -3.564e-8, -1.884e-6, -1.391e-6, 4.924e-7
-0.292, 7.516e-10, -3.466e-8, -3.542e-8, -1.887e-6, -1.395e-6, 4.921e-7
-0.293, 7.417e-10, -3.471e-8, -3.545e-8, -1.891e-6, -1.399e-6, 4.924e-7
-0.294, 5.565e-10, -3.478e-8, -3.534e-8, -1.896e-6, -1.403e-6, 4.927e-7
-0.295, 3.487e-10, -3.467e-8, -3.502e-8, -1.899e-6, -1.406e-6, 4.926e-7
-0.296, 2.169e-10, -3.473e-8, -3.495e-8, -1.903e-6, -1.410e-6, 4.926e-7
-0.297, 1.366e-10, -3.483e-8, -3.497e-8, -1.906e-6, -1.414e-6, 4.926e-7
-0.298, 4.037e-10, -3.471e-8, -3.512e-8, -1.910e-6, -1.417e-6, 4.926e-7
-0.299, 1.020e-10, -3.492e-8, -3.502e-8, -1.914e-6, -1.421e-6, 4.924e-7
-0.300, -1.919e-10, -3.504e-8, -3.485e-8, -1.917e-6, -1.425e-6, 4.924e-7
-0.301, -8.244e-11, -3.495e-8, -3.487e-8, -1.922e-6, -1.429e-6, 4.924e-7
-0.302, -1.445e-10, -3.507e-8, -3.493e-8, -1.925e-6, -1.433e-6, 4.922e-7
-0.303, -4.119e-12, -3.506e-8, -3.505e-8, -1.928e-6, -1.436e-6, 4.919e-7
-0.304, 6.542e-11, -3.512e-8, -3.519e-8, -1.932e-6, -1.440e-6, 4.918e-7
-0.305, 2.015e-10, -3.499e-8, -3.519e-8, -1.936e-6, -1.444e-6, 4.916e-7
-0.306, 2.110e-10, -3.504e-8, -3.525e-8, -1.939e-6, -1.447e-6, 4.914e-7
-0.307, 5.163e-10, -3.489e-8, -3.541e-8, -1.942e-6, -1.450e-6, 4.912e-7
-0.308, 5.633e-10, -3.477e-8, -3.533e-8, -1.945e-6, -1.454e-6, 4.907e-7
-0.309, 6.726e-10, -3.483e-8, -3.550e-8, -1.947e-6, -1.457e-6, 4.899e-7
-0.310, 7.001e-10, -3.490e-8, -3.560e-8, -1.949e-6, -1.460e-6, 4.893e-7
-0.311, 9.919e-10, -3.475e-8, -3.575e-8, -1.952e-6, -1.463e-6, 4.886e-7
-0.312, 1.197e-9, -3.475e-8, -3.594e-8, -1.954e-6, -1.466e-6, 4.878e-7
-0.313, 1.102e-9, -3.483e-8, -3.593e-8, -1.956e-6, -1.469e-6, 4.872e-7
-0.314, 1.390e-9, -3.473e-8, -3.612e-8, -1.959e-6, -1.472e-6, 4.869e-7
-0.315, 1.394e-9, -3.475e-8, -3.614e-8, -1.962e-6, -1.476e-6, 4.862e-7
-0.316, 1.611e-9, -3.477e-8, -3.638e-8, -1.964e-6, -1.478e-6, 4.854e-7
-0.317, 1.707e-9, -3.474e-8, -3.645e-8, -1.966e-6, -1.481e-6, 4.845e-7
-0.318, 1.748e-9, -3.464e-8, -3.639e-8, -1.968e-6, -1.484e-6, 4.840e-7
-0.319, 1.618e-9, -3.480e-8, -3.642e-8, -1.971e-6, -1.488e-6, 4.832e-7
-0.320, 1.566e-9, -3.488e-8, -3.644e-8, -1.974e-6, -1.492e-6, 4.826e-7
-0.321, 1.588e-9, -3.473e-8, -3.632e-8, -1.977e-6, -1.495e-6, 4.821e-7
-0.322, 1.528e-9, -3.474e-8, -3.626e-8, -1.980e-6, -1.499e-6, 4.812e-7
-0.323, 1.594e-9, -3.470e-8, -3.629e-8, -1.983e-6, -1.502e-6, 4.806e-7
-0.324, 1.519e-9, -3.480e-8, -3.632e-8, -1.985e-6, -1.506e-6, 4.798e-7
-0.325, 1.544e-9, -3.472e-8, -3.626e-8, -1.988e-6, -1.509e-6, 4.790e-7
-0.326, 1.445e-9, -3.488e-8, -3.633e-8, -1.991e-6, -1.512e-6, 4.784e-7
-0.327, 1.264e-9, -3.508e-8, -3.634e-8, -1.994e-6, -1.516e-6, 4.778e-7
-0.328, 1.213e-9, -3.516e-8, -3.637e-8, -1.997e-6, -1.520e-6, 4.773e-7
-0.329, 1.258e-9, -3.515e-8, -3.640e-8, -2.001e-6, -1.524e-6, 4.768e-7
-0.330, 1.077e-9, -3.527e-8, -3.635e-8, -2.005e-6, -1.529e-6, 4.762e-7
-0.331, 1.176e-9, -3.521e-8, -3.638e-8, -2.009e-6, -1.534e-6, 4.759e-7
-0.332, 8.033e-10, -3.528e-8, -3.608e-8, -2.013e-6, -1.538e-6, 4.756e-7
-0.333, 6.667e-10, -3.543e-8, -3.610e-8, -2.018e-6, -1.542e-6, 4.756e-7
-0.334, 9.486e-10, -3.526e-8, -3.620e-8, -2.022e-6, -1.546e-6, 4.752e-7
-0.335, 9.412e-10, -3.513e-8, -3.607e-8, -2.026e-6, -1.551e-6, 4.749e-7
-0.336, 7.754e-10, -3.520e-8, -3.598e-8, -2.030e-6, -1.556e-6, 4.747e-7
-0.337, 7.835e-10, -3.521e-8, -3.599e-8, -2.034e-6, -1.560e-6, 4.740e-7
-0.338, 5.269e-10, -3.526e-8, -3.579e-8, -2.038e-6, -1.565e-6, 4.734e-7
-0.339, 8.951e-11, -3.538e-8, -3.547e-8, -2.042e-6, -1.569e-6, 4.729e-7
-0.340, 2.220e-10, -3.524e-8, -3.546e-8, -2.046e-6, -1.574e-6, 4.725e-7
-0.341, 2.386e-10, -3.526e-8, -3.550e-8, -2.050e-6, -1.578e-6, 4.723e-7
-0.342, 1.013e-11, -3.526e-8, -3.527e-8, -2.054e-6, -1.582e-6, 4.717e-7
-0.343, -9.567e-12, -3.524e-8, -3.523e-8, -2.057e-6, -1.586e-6, 4.709e-7
-0.344, -1.472e-10, -3.540e-8, -3.525e-8, -2.061e-6, -1.591e-6, 4.702e-7
-0.345, -2.787e-11, -3.539e-8, -3.536e-8, -2.064e-6, -1.595e-6, 4.695e-7
-0.346, -1.143e-10, -3.538e-8, -3.527e-8, -2.068e-6, -1.599e-6, 4.690e-7
-0.347, -2.874e-10, -3.555e-8, -3.526e-8, -2.072e-6, -1.604e-6, 4.686e-7
-0.348, -3.241e-10, -3.549e-8, -3.516e-8, -2.076e-6, -1.608e-6, 4.679e-7
-0.349, -6.819e-11, -3.534e-8, -3.527e-8, -2.079e-6, -1.612e-6, 4.669e-7
-0.350, 4.810e-11, -3.526e-8, -3.531e-8, -2.081e-6, -1.615e-6, 4.658e-7
-0.351, 2.021e-10, -3.511e-8, -3.531e-8, -2.084e-6, -1.619e-6, 4.649e-7
-0.352, 3.084e-10, -3.502e-8, -3.532e-8, -2.087e-6, -1.623e-6, 4.638e-7
-0.353, 5.573e-10, -3.481e-8, -3.537e-8, -2.089e-6, -1.626e-6, 4.626e-7
-0.354, 5.702e-10, -3.490e-8, -3.547e-8, -2.091e-6, -1.630e-6, 4.610e-7
-0.355, 7.102e-10, -3.470e-8, -3.541e-8, -2.093e-6, -1.634e-6, 4.596e-7
-0.356, 8.453e-10, -3.455e-8, -3.540e-8, -2.095e-6, -1.637e-6, 4.584e-7
-0.357, 1.018e-9, -3.456e-8, -3.558e-8, -2.097e-6, -1.640e-6, 4.571e-7
-0.358, 1.270e-9, -3.441e-8, -3.568e-8, -2.100e-6, -1.644e-6, 4.560e-7
-0.359, 1.384e-9, -3.435e-8, -3.574e-8, -2.102e-6, -1.647e-6, 4.545e-7
-0.360, 1.212e-9, -3.441e-8, -3.562e-8, -2.104e-6, -1.651e-6, 4.530e-7
-0.361, 1.476e-9, -3.428e-8, -3.576e-8, -2.106e-6, -1.655e-6, 4.516e-7
-0.362, 1.690e-9, -3.431e-8, -3.600e-8, -2.108e-6, -1.658e-6, 4.500e-7
-0.363, 1.574e-9, -3.448e-8, -3.605e-8, -2.110e-6, -1.661e-6, 4.484e-7
-0.364, 1.666e-9, -3.450e-8, -3.617e-8, -2.111e-6, -1.665e-6, 4.466e-7
-0.365, 1.570e-9, -3.452e-8, -3.609e-8, -2.114e-6, -1.668e-6, 4.451e-7
-0.366, 1.614e-9, -3.443e-8, -3.604e-8, -2.115e-6, -1.672e-6, 4.436e-7
-0.367, 1.738e-9, -3.440e-8, -3.614e-8, -2.117e-6, -1.675e-6, 4.417e-7
-0.368, 1.707e-9, -3.444e-8, -3.615e-8, -2.118e-6, -1.678e-6, 4.402e-7
-0.369, 1.857e-9, -3.432e-8, -3.618e-8, -2.120e-6, -1.681e-6, 4.382e-7
-0.370, 1.989e-9, -3.441e-8, -3.640e-8, -2.121e-6, -1.685e-6, 4.361e-7
-0.371, 2.005e-9, -3.435e-8, -3.635e-8, -2.122e-6, -1.688e-6, 4.343e-7
-0.372, 1.870e-9, -3.439e-8, -3.626e-8, -2.124e-6, -1.691e-6, 4.323e-7
-0.373, 1.954e-9, -3.438e-8, -3.633e-8, -2.125e-6, -1.694e-6, 4.305e-7
-0.374, 2.131e-9, -3.431e-8, -3.644e-8, -2.127e-6, -1.698e-6, 4.288e-7
-0.375, 2.335e-9, -3.416e-8, -3.650e-8, -2.128e-6, -1.701e-6, 4.269e-7
-0.376, 2.525e-9, -3.406e-8, -3.659e-8, -2.129e-6, -1.705e-6, 4.247e-7
-0.377, 2.575e-9, -3.403e-8, -3.660e-8, -2.130e-6, -1.708e-6, 4.227e-7
-0.378, 2.536e-9, -3.394e-8, -3.648e-8, -2.132e-6, -1.711e-6, 4.206e-7
-0.379, 2.193e-9, -3.415e-8, -3.635e-8, -2.133e-6, -1.714e-6, 4.185e-7
-0.380, 2.213e-9, -3.415e-8, -3.636e-8, -2.134e-6, -1.717e-6, 4.164e-7
-0.381, 2.421e-9, -3.409e-8, -3.651e-8, -2.135e-6, -1.720e-6, 4.142e-7
-0.382, 2.494e-9, -3.403e-8, -3.653e-8, -2.135e-6, -1.723e-6, 4.117e-7
-0.383, 2.175e-9, -3.415e-8, -3.632e-8, -2.136e-6, -1.726e-6, 4.094e-7
-0.384, 1.770e-9, -3.426e-8, -3.603e-8, -2.136e-6, -1.729e-6, 4.069e-7
-0.385, 1.552e-9, -3.437e-8, -3.592e-8, -2.136e-6, -1.732e-6, 4.044e-7
-0.386, 1.467e-9, -3.436e-8, -3.583e-8, -2.137e-6, -1.735e-6, 4.020e-7
-0.387, 1.464e-9, -3.432e-8, -3.578e-8, -2.137e-6, -1.737e-6, 3.996e-7
-0.388, 1.650e-9, -3.418e-8, -3.583e-8, -2.137e-6, -1.740e-6, 3.972e-7
-0.389, 1.308e-9, -3.429e-8, -3.560e-8, -2.137e-6, -1.743e-6, 3.947e-7
-0.390, 9.555e-10, -3.444e-8, -3.539e-8, -2.137e-6, -1.745e-6, 3.919e-7
-0.391, 8.775e-10, -3.457e-8, -3.544e-8, -2.137e-6, -1.748e-6, 3.894e-7
-0.392, 6.972e-10, -3.465e-8, -3.535e-8, -2.138e-6, -1.751e-6, 3.868e-7
-0.393, 7.615e-10, -3.458e-8, -3.534e-8, -2.138e-6, -1.753e-6, 3.846e-7
-0.394, 6.247e-10, -3.463e-8, -3.526e-8, -2.138e-6, -1.756e-6, 3.822e-7
-0.395, 6.102e-10, -3.469e-8, -3.530e-8, -2.138e-6, -1.759e-6, 3.796e-7
-0.396, 5.264e-10, -3.475e-8, -3.528e-8, -2.138e-6, -1.761e-6, 3.770e-7
-0.397, 5.428e-10, -3.481e-8, -3.536e-8, -2.139e-6, -1.764e-6, 3.745e-7
-0.398, 5.236e-10, -3.487e-8, -3.539e-8, -2.139e-6, -1.767e-6, 3.720e-7
-0.399, 2.032e-10, -3.506e-8, -3.526e-8, -2.140e-6, -1.770e-6, 3.696e-7
-0.400, 1.449e-10, -3.513e-8, -3.527e-8, -2.140e-6, -1.773e-6, 3.671e-7
-0.401, 3.498e-10, -3.517e-8, -3.552e-8, -2.140e-6, -1.776e-6, 3.647e-7
-0.402, 1.259e-10, -3.537e-8, -3.550e-8, -2.141e-6, -1.779e-6, 3.622e-7
-0.403, -1.396e-11, -3.540e-8, -3.539e-8, -2.141e-6, -1.781e-6, 3.600e-7
-0.404, -1.878e-10, -3.556e-8, -3.538e-8, -2.141e-6, -1.784e-6, 3.577e-7
-0.405, -4.133e-10, -3.574e-8, -3.533e-8, -2.142e-6, -1.787e-6, 3.554e-7
-0.406, -6.166e-10, -3.581e-8, -3.520e-8, -2.142e-6, -1.789e-6, 3.528e-7
-0.407, -7.997e-10, -3.593e-8, -3.513e-8, -2.142e-6, -1.792e-6, 3.501e-7
-0.408, -8.964e-10, -3.607e-8, -3.517e-8, -2.142e-6, -1.794e-6, 3.477e-7
-0.409, -8.038e-10, -3.619e-8, -3.539e-8, -2.142e-6, -1.797e-6, 3.451e-7
-0.410, -9.099e-10, -3.636e-8, -3.545e-8, -2.143e-6, -1.800e-6, 3.428e-7
-0.411, -1.047e-9, -3.640e-8, -3.535e-8, -2.143e-6, -1.803e-6, 3.402e-7
-0.412, -9.275e-10, -3.631e-8, -3.538e-8, -2.143e-6, -1.805e-6, 3.378e-7
-0.413, -8.319e-10, -3.618e-8, -3.535e-8, -2.144e-6, -1.808e-6, 3.355e-7
-0.414, -9.280e-10, -3.611e-8, -3.518e-8, -2.144e-6, -1.811e-6, 3.330e-7
-0.415, -9.445e-10, -3.619e-8, -3.525e-8, -2.144e-6, -1.813e-6, 3.305e-7
-0.416, -9.673e-10, -3.625e-8, -3.528e-8, -2.144e-6, -1.816e-6, 3.282e-7
-0.417, -8.139e-10, -3.616e-8, -3.534e-8, -2.145e-6, -1.819e-6, 3.257e-7
-0.418, -9.225e-10, -3.603e-8, -3.511e-8, -2.145e-6, -1.822e-6, 3.235e-7
-0.419, -1.117e-9, -3.597e-8, -3.486e-8, -2.146e-6, -1.825e-6, 3.215e-7
-0.420, -8.887e-10, -3.588e-8, -3.499e-8, -2.147e-6, -1.827e-6, 3.191e-7
-0.421, -6.415e-10, -3.576e-8, -3.511e-8, -2.147e-6, -1.830e-6, 3.168e-7
-0.422, -4.345e-10, -3.569e-8, -3.526e-8, -2.147e-6, -1.833e-6, 3.146e-7
-0.423, -3.500e-10, -3.567e-8, -3.532e-8, -2.146e-6, -1.834e-6, 3.120e-7
-0.424, -2.947e-10, -3.561e-8, -3.531e-8, -2.147e-6, -1.837e-6, 3.097e-7
-0.425, -3.344e-10, -3.573e-8, -3.539e-8, -2.146e-6, -1.839e-6, 3.072e-7
-0.426, -3.406e-10, -3.574e-8, -3.540e-8, -2.146e-6, -1.841e-6, 3.045e-7
-0.427, -4.075e-10, -3.580e-8, -3.539e-8, -2.145e-6, -1.843e-6, 3.020e-7
-0.428, -2.889e-10, -3.562e-8, -3.533e-8, -2.144e-6, -1.845e-6, 2.992e-7
-0.429, -3.632e-10, -3.567e-8, -3.531e-8, -2.143e-6, -1.847e-6, 2.966e-7
-0.430, -4.308e-10, -3.571e-8, -3.528e-8, -2.142e-6, -1.848e-6, 2.938e-7
-0.431, -5.040e-10, -3.557e-8, -3.506e-8, -2.141e-6, -1.850e-6, 2.911e-7
-0.432, -6.508e-10, -3.558e-8, -3.493e-8, -2.140e-6, -1.851e-6, 2.886e-7
-0.433, -2.742e-10, -3.541e-8, -3.514e-8, -2.139e-6, -1.853e-6, 2.858e-7
-0.434, 1.408e-10, -3.509e-8, -3.524e-8, -2.138e-6, -1.855e-6, 2.834e-7
-0.435, 6.964e-11, -3.506e-8, -3.513e-8, -2.137e-6, -1.856e-6, 2.807e-7
-0.436, 2.012e-10, -3.495e-8, -3.515e-8, -2.135e-6, -1.857e-6, 2.779e-7
-0.437, 1.219e-10, -3.491e-8, -3.503e-8, -2.134e-6, -1.859e-6, 2.752e-7
-0.438, 2.957e-10, -3.490e-8, -3.520e-8, -2.133e-6, -1.860e-6, 2.728e-7
-0.439, 2.758e-10, -3.492e-8, -3.519e-8, -2.131e-6, -1.861e-6, 2.701e-7
-0.440, 2.638e-10, -3.498e-8, -3.524e-8, -2.130e-6, -1.862e-6, 2.674e-7
-0.441, 2.861e-10, -3.497e-8, -3.525e-8, -2.128e-6, -1.863e-6, 2.648e-7
-0.442, 3.505e-10, -3.503e-8, -3.538e-8, -2.126e-6, -1.864e-6, 2.619e-7
-0.443, 3.523e-10, -3.504e-8, -3.539e-8, -2.124e-6, -1.865e-6, 2.593e-7
-0.444, 5.324e-10, -3.501e-8, -3.555e-8, -2.123e-6, -1.866e-6, 2.569e-7
-0.445, 5.608e-10, -3.483e-8, -3.539e-8, -2.122e-6, -1.868e-6, 2.545e-7
-0.446, 5.058e-10, -3.491e-8, -3.542e-8, -2.121e-6, -1.869e-6, 2.520e-7
-0.447, 3.570e-10, -3.493e-8, -3.529e-8, -2.120e-6, -1.870e-6, 2.496e-7
-0.448, 3.810e-10, -3.502e-8, -3.540e-8, -2.118e-6, -1.871e-6, 2.473e-7
-0.449, 4.577e-10, -3.512e-8, -3.557e-8, -2.116e-6, -1.871e-6, 2.446e-7
-0.450, 9.634e-11, -3.519e-8, -3.528e-8, -2.113e-6, -1.871e-6, 2.420e-7
-0.451, 9.499e-11, -3.517e-8, -3.527e-8, -2.111e-6, -1.871e-6, 2.394e-7
-0.452, 2.544e-10, -3.515e-8, -3.541e-8, -2.108e-6, -1.871e-6, 2.368e-7
-0.453, 2.968e-10, -3.510e-8, -3.540e-8, -2.105e-6, -1.871e-6, 2.339e-7
-0.454, 2.490e-10, -3.520e-8, -3.545e-8, -2.102e-6, -1.871e-6, 2.309e-7
-0.455, 4.944e-10, -3.512e-8, -3.561e-8, -2.099e-6, -1.871e-6, 2.279e-7
-0.456, 5.041e-10, -3.507e-8, -3.558e-8, -2.097e-6, -1.872e-6, 2.255e-7
-0.457, 1.785e-10, -3.526e-8, -3.544e-8, -2.095e-6, -1.872e-6, 2.227e-7
-0.458, -1.825e-14, -3.530e-8, -3.530e-8, -2.093e-6, -1.873e-6, 2.202e-7
-0.459, -1.602e-10, -3.527e-8, -3.511e-8, -2.091e-6, -1.873e-6, 2.174e-7
-0.460, -1.755e-10, -3.518e-8, -3.500e-8, -2.088e-6, -1.874e-6, 2.147e-7
-0.461, 2.865e-11, -3.506e-8, -3.509e-8, -2.086e-6, -1.874e-6, 2.119e-7
-0.462, -2.116e-10, -3.517e-8, -3.496e-8, -2.084e-6, -1.875e-6, 2.094e-7
-0.463, -1.263e-10, -3.515e-8, -3.503e-8, -2.082e-6, -1.875e-6, 2.067e-7
-0.464, -6.142e-11, -3.497e-8, -3.491e-8, -2.080e-6, -1.876e-6, 2.043e-7
-0.465, 2.776e-11, -3.484e-8, -3.486e-8, -2.078e-6, -1.877e-6, 2.017e-7
-0.466, 3.346e-11, -3.481e-8, -3.485e-8, -2.076e-6, -1.877e-6, 1.993e-7
-0.467, 1.844e-10, -3.485e-8, -3.504e-8, -2.073e-6, -1.877e-6, 1.963e-7
-0.468, 4.347e-10, -3.477e-8, -3.521e-8, -2.071e-6, -1.877e-6, 1.937e-7
-0.469, 3.023e-10, -3.493e-8, -3.523e-8, -2.068e-6, -1.877e-6, 1.909e-7
-0.470, 4.503e-10, -3.494e-8, -3.539e-8, -2.064e-6, -1.876e-6, 1.881e-7
-0.471, 4.736e-10, -3.479e-8, -3.526e-8, -2.061e-6, -1.876e-6, 1.851e-7
-0.472, 3.484e-10, -3.485e-8, -3.520e-8, -2.057e-6, -1.875e-6, 1.819e-7
-0.473, 4.559e-10, -3.482e-8, -3.527e-8, -2.055e-6, -1.876e-6, 1.788e-7
-0.474, 4.582e-10, -3.481e-8, -3.527e-8, -2.052e-6, -1.876e-6, 1.758e-7
-0.475, 4.725e-10, -3.485e-8, -3.532e-8, -2.049e-6, -1.876e-6, 1.730e-7
-0.476, 3.287e-10, -3.490e-8, -3.523e-8, -2.046e-6, -1.876e-6, 1.702e-7
-0.477, 2.566e-10, -3.493e-8, -3.519e-8, -2.043e-6, -1.876e-6, 1.670e-7
-0.478, 2.152e-10, -3.490e-8, -3.512e-8, -2.041e-6, -1.876e-6, 1.641e-7
-0.479, 3.766e-10, -3.482e-8, -3.520e-8, -2.038e-6, -1.876e-6, 1.612e-7
-0.480, 2.997e-10, -3.487e-8, -3.517e-8, -2.034e-6, -1.876e-6, 1.582e-7
-0.481, 5.139e-10, -3.471e-8, -3.523e-8, -2.031e-6, -1.876e-6, 1.552e-7
-0.482, 6.539e-10, -3.461e-8, -3.526e-8, -2.028e-6, -1.876e-6, 1.524e-7
-0.483, 7.327e-10, -3.445e-8, -3.519e-8, -2.026e-6, -1.876e-6, 1.494e-7
-0.484, 5.894e-10, -3.449e-8, -3.508e-8, -2.023e-6, -1.877e-6, 1.465e-7
-0.485, 4.536e-10, -3.460e-8, -3.506e-8, -2.021e-6, -1.877e-6, 1.436e-7
-0.486, 4.051e-10, -3.465e-8, -3.505e-8, -2.019e-6, -1.878e-6, 1.411e-7
-0.487, 3.228e-10, -3.465e-8, -3.497e-8, -2.017e-6, -1.878e-6, 1.384e-7
-0.488, 3.627e-10, -3.462e-8, -3.498e-8, -2.015e-6, -1.879e-6, 1.359e-7
-0.489, 2.946e-10, -3.463e-8, -3.493e-8, -2.015e-6, -1.881e-6, 1.336e-7
-0.490, 1.479e-10, -3.473e-8, -3.488e-8, -2.014e-6, -1.882e-6, 1.314e-7
-0.491, 2.679e-10, -3.470e-8, -3.496e-8, -2.014e-6, -1.884e-6, 1.296e-7
-0.492, 2.342e-10, -3.471e-8, -3.494e-8, -2.013e-6, -1.885e-6, 1.277e-7
-0.493, 1.542e-12, -3.479e-8, -3.479e-8, -2.012e-6, -1.886e-6, 1.257e-7
-0.494, 1.090e-10, -3.481e-8, -3.492e-8, -2.011e-6, -1.887e-6, 1.237e-7
-0.495, 8.963e-11, -3.471e-8, -3.480e-8, -2.008e-6, -1.887e-6, 1.217e-7
-0.496, 1.207e-10, -3.481e-8, -3.493e-8, -2.006e-6, -1.886e-6, 1.195e-7
-0.497, 4.080e-10, -3.469e-8, -3.509e-8, -2.005e-6, -1.887e-6, 1.173e-7
-0.498, 3.940e-10, -3.461e-8, -3.500e-8, -2.003e-6, -1.888e-6, 1.153e-7
-0.499, 5.561e-10, -3.461e-8, -3.516e-8, -2.002e-6, -1.889e-6, 1.134e-7
-0.500, 5.045e-10, -3.458e-8, -3.508e-8, -2.001e-6, -1.890e-6, 1.111e-7
-0.501, 5.257e-10, -3.448e-8, -3.501e-8, -2.000e-6, -1.891e-6, 1.091e-7
-0.502, 7.622e-10, -3.445e-8, -3.521e-8, -2.000e-6, -1.892e-6, 1.072e-7
-0.503, 8.270e-10, -3.438e-8, -3.521e-8, -1.999e-6, -1.894e-6, 1.053e-7
-0.504, 6.015e-10, -3.450e-8, -3.510e-8, -1.998e-6, -1.895e-6, 1.035e-7
-0.505, 4.661e-10, -3.461e-8, -3.508e-8, -1.998e-6, -1.897e-6, 1.014e-7
-0.506, 8.084e-10, -3.441e-8, -3.522e-8, -1.998e-6, -1.898e-6, 9.955e-8
-0.507, 9.526e-10, -3.431e-8, -3.526e-8, -1.997e-6, -1.899e-6, 9.767e-8
-0.508, 1.122e-9, -3.426e-8, -3.538e-8, -1.996e-6, -1.901e-6, 9.587e-8
-0.509, 1.298e-9, -3.424e-8, -3.554e-8, -1.996e-6, -1.902e-6, 9.397e-8
-0.510, 1.129e-9, -3.430e-8, -3.543e-8, -1.994e-6, -1.902e-6, 9.193e-8
-0.511, 1.262e-9, -3.430e-8, -3.556e-8, -1.992e-6, -1.902e-6, 8.985e-8
-0.512, 1.234e-9, -3.428e-8, -3.552e-8, -1.990e-6, -1.902e-6, 8.771e-8
-0.513, 1.402e-9, -3.431e-8, -3.571e-8, -1.988e-6, -1.902e-6, 8.551e-8
-0.514, 1.584e-9, -3.432e-8, -3.591e-8, -1.985e-6, -1.902e-6, 8.321e-8
-0.515, 1.648e-9, -3.433e-8, -3.598e-8, -1.982e-6, -1.902e-6, 8.066e-8
-0.516, 1.863e-9, -3.432e-8, -3.618e-8, -1.980e-6, -1.901e-6, 7.860e-8
-0.517, 1.832e-9, -3.434e-8, -3.617e-8, -1.976e-6, -1.901e-6, 7.562e-8
-0.518, 1.943e-9, -3.423e-8, -3.618e-8, -1.973e-6, -1.900e-6, 7.328e-8
-0.519, 1.860e-9, -3.421e-8, -3.607e-8, -1.971e-6, -1.901e-6, 7.050e-8
-0.520, 1.801e-9, -3.434e-8, -3.614e-8, -1.968e-6, -1.900e-6, 6.771e-8
-0.521, 1.747e-9, -3.429e-8, -3.604e-8, -1.965e-6, -1.900e-6, 6.529e-8
-0.522, 1.797e-9, -3.431e-8, -3.611e-8, -1.961e-6, -1.899e-6, 6.262e-8
-0.523, 1.660e-9, -3.439e-8, -3.605e-8, -1.957e-6, -1.898e-6, 5.983e-8
-0.524, 1.525e-9, -3.429e-8, -3.582e-8, -1.954e-6, -1.897e-6, 5.691e-8
-0.525, 1.606e-9, -3.435e-8, -3.595e-8, -1.950e-6, -1.896e-6, 5.396e-8
-0.526, 1.863e-9, -3.428e-8, -3.614e-8, -1.947e-6, -1.896e-6, 5.134e-8
-0.527, 1.976e-9, -3.419e-8, -3.616e-8, -1.942e-6, -1.894e-6, 4.849e-8
-0.528, 1.829e-9, -3.424e-8, -3.607e-8, -1.939e-6, -1.893e-6, 4.555e-8
-0.529, 1.935e-9, -3.412e-8, -3.606e-8, -1.936e-6, -1.893e-6, 4.267e-8
-0.530, 1.770e-9, -3.428e-8, -3.605e-8, -1.933e-6, -1.893e-6, 3.996e-8
-0.531, 1.497e-9, -3.433e-8, -3.582e-8, -1.930e-6, -1.893e-6, 3.711e-8
-0.532, 1.087e-9, -3.461e-8, -3.569e-8, -1.926e-6, -1.892e-6, 3.419e-8
-0.533, 9.987e-10, -3.463e-8, -3.563e-8, -1.923e-6, -1.892e-6, 3.157e-8
-0.534, 8.321e-10, -3.470e-8, -3.553e-8, -1.921e-6, -1.892e-6, 2.899e-8
-0.535, 6.474e-10, -3.476e-8, -3.541e-8, -1.918e-6, -1.892e-6, 2.645e-8
-0.536, 4.975e-10, -3.488e-8, -3.538e-8, -1.916e-6, -1.892e-6, 2.401e-8
-0.537, 4.175e-10, -3.509e-8, -3.551e-8, -1.913e-6, -1.891e-6, 2.151e-8
-0.538, 2.451e-10, -3.509e-8, -3.534e-8, -1.910e-6, -1.890e-6, 1.915e-8
-0.539, 5.864e-10, -3.498e-8, -3.556e-8, -1.907e-6, -1.890e-6, 1.650e-8
-0.540, 5.296e-10, -3.493e-8, -3.546e-8, -1.904e-6, -1.890e-6, 1.391e-8
-0.541, 4.117e-10, -3.502e-8, -3.543e-8, -1.901e-6, -1.889e-6, 1.143e-8
-0.542, 4.408e-10, -3.497e-8, -3.541e-8, -1.898e-6, -1.889e-6, 8.862e-9
-0.543, 4.889e-10, -3.493e-8, -3.542e-8, -1.895e-6, -1.889e-6, 6.359e-9
-0.544, 4.972e-10, -3.503e-8, -3.553e-8, -1.893e-6, -1.889e-6, 3.867e-9
-0.545, 5.146e-10, -3.506e-8, -3.557e-8, -1.892e-6, -1.890e-6, 1.366e-9
-0.546, 3.145e-10, -3.505e-8, -3.537e-8, -1.889e-6, -1.890e-6, -1.238e-9
-0.547, 3.507e-10, -3.506e-8, -3.541e-8, -1.888e-6, -1.891e-6, -3.666e-9
-0.548, 4.208e-10, -3.492e-8, -3.534e-8, -1.886e-6, -1.892e-6, -5.946e-9
-0.549, 7.845e-10, -3.478e-8, -3.557e-8, -1.883e-6, -1.891e-6, -8.373e-9
-0.550, 6.747e-10, -3.495e-8, -3.562e-8, -1.880e-6, -1.891e-6, -1.089e-8
-0.551, 4.671e-10, -3.504e-8, -3.550e-8, -1.878e-6, -1.892e-6, -1.359e-8
-0.552, 4.585e-10, -3.498e-8, -3.544e-8, -1.876e-6, -1.892e-6, -1.617e-8
-0.553, 5.027e-10, -3.495e-8, -3.545e-8, -1.874e-6, -1.893e-6, -1.858e-8
-0.554, 4.673e-10, -3.499e-8, -3.546e-8, -1.872e-6, -1.893e-6, -2.104e-8
-0.555, 2.207e-10, -3.510e-8, -3.532e-8, -1.870e-6, -1.893e-6, -2.340e-8
-0.556, 2.023e-10, -3.522e-8, -3.542e-8, -1.868e-6, -1.893e-6, -2.584e-8
-0.557, 1.594e-10, -3.520e-8, -3.536e-8, -1.865e-6, -1.893e-6, -2.847e-8
-0.558, 3.753e-10, -3.506e-8, -3.543e-8, -1.863e-6, -1.894e-6, -3.086e-8
-0.559, 4.440e-10, -3.507e-8, -3.552e-8, -1.861e-6, -1.894e-6, -3.316e-8
-0.560, 5.078e-10, -3.486e-8, -3.536e-8, -1.858e-6, -1.894e-6, -3.563e-8
-0.561, 7.917e-10, -3.479e-8, -3.559e-8, -1.856e-6, -1.894e-6, -3.795e-8
-0.562, 8.807e-10, -3.480e-8, -3.569e-8, -1.854e-6, -1.894e-6, -4.049e-8
-0.563, 7.262e-10, -3.480e-8, -3.553e-8, -1.852e-6, -1.894e-6, -4.276e-8
-0.564, 7.828e-10, -3.475e-8, -3.554e-8, -1.849e-6, -1.895e-6, -4.521e-8
-0.565, 7.455e-10, -3.459e-8, -3.534e-8, -1.846e-6, -1.894e-6, -4.801e-8
-0.566, 1.030e-9, -3.444e-8, -3.547e-8, -1.844e-6, -1.894e-6, -5.035e-8
-0.567, 9.310e-10, -3.449e-8, -3.542e-8, -1.841e-6, -1.894e-6, -5.304e-8
-0.568, 1.087e-9, -3.439e-8, -3.548e-8, -1.838e-6, -1.893e-6, -5.544e-8
-0.569, 1.186e-9, -3.425e-8, -3.544e-8, -1.836e-6, -1.894e-6, -5.786e-8
-0.570, 1.384e-9, -3.421e-8, -3.559e-8, -1.833e-6, -1.893e-6, -6.055e-8
-0.571, 1.374e-9, -3.416e-8, -3.553e-8, -1.830e-6, -1.893e-6, -6.310e-8
-0.572, 1.440e-9, -3.408e-8, -3.552e-8, -1.828e-6, -1.893e-6, -6.556e-8
-0.573, 1.643e-9, -3.393e-8, -3.557e-8, -1.825e-6, -1.893e-6, -6.802e-8
-0.574, 1.580e-9, -3.394e-8, -3.552e-8, -1.823e-6, -1.893e-6, -7.045e-8
-0.575, 1.512e-9, -3.403e-8, -3.554e-8, -1.819e-6, -1.892e-6, -7.313e-8
-0.576, 1.232e-9, -3.417e-8, -3.541e-8, -1.817e-6, -1.893e-6, -7.579e-8
-0.577, 1.322e-9, -3.407e-8, -3.539e-8, -1.814e-6, -1.893e-6, -7.826e-8
-0.578, 1.186e-9, -3.419e-8, -3.538e-8, -1.812e-6, -1.893e-6, -8.087e-8
-0.579, 1.109e-9, -3.418e-8, -3.529e-8, -1.810e-6, -1.893e-6, -8.327e-8
-0.580, 8.937e-10, -3.436e-8, -3.525e-8, -1.807e-6, -1.893e-6, -8.599e-8
-0.581, 8.624e-10, -3.434e-8, -3.520e-8, -1.805e-6, -1.893e-6, -8.822e-8
-0.582, 8.212e-10, -3.447e-8, -3.529e-8, -1.803e-6, -1.893e-6, -9.064e-8
-0.583, 8.463e-10, -3.448e-8, -3.532e-8, -1.800e-6, -1.893e-6, -9.297e-8
-0.584, 8.821e-10, -3.457e-8, -3.546e-8, -1.797e-6, -1.892e-6, -9.543e-8
-0.585, 7.739e-10, -3.458e-8, -3.535e-8, -1.794e-6, -1.892e-6, -9.809e-8
-0.586, 7.521e-10, -3.445e-8, -3.520e-8, -1.791e-6, -1.892e-6, -1.005e-7
-0.587, 9.718e-10, -3.436e-8, -3.533e-8, -1.789e-6, -1.892e-6, -1.032e-7
-0.588, 6.953e-10, -3.442e-8, -3.512e-8, -1.787e-6, -1.893e-6, -1.057e-7
-0.589, 4.993e-10, -3.452e-8, -3.502e-8, -1.785e-6, -1.893e-6, -1.084e-7
-0.590, 5.576e-10, -3.454e-8, -3.510e-8, -1.783e-6, -1.894e-6, -1.109e-7
-0.591, 7.402e-10, -3.451e-8, -3.525e-8, -1.780e-6, -1.894e-6, -1.134e-7
-0.592, 5.263e-10, -3.463e-8, -3.515e-8, -1.778e-6, -1.894e-6, -1.160e-7
-0.593, 6.294e-10, -3.454e-8, -3.517e-8, -1.776e-6, -1.895e-6, -1.187e-7
-0.594, 7.985e-10, -3.440e-8, -3.520e-8, -1.773e-6, -1.894e-6, -1.212e-7
-0.595, 1.019e-9, -3.435e-8, -3.537e-8, -1.771e-6, -1.895e-6, -1.239e-7
-0.596, 9.621e-10, -3.428e-8, -3.524e-8, -1.768e-6, -1.895e-6, -1.263e-7
-0.597, 1.053e-9, -3.424e-8, -3.530e-8, -1.766e-6, -1.895e-6, -1.292e-7
-0.598, 8.153e-10, -3.433e-8, -3.514e-8, -1.764e-6, -1.895e-6, -1.315e-7
-0.599, 8.857e-10, -3.423e-8, -3.511e-8, -1.762e-6, -1.896e-6, -1.339e-7
-0.600, 9.793e-10, -3.416e-8, -3.514e-8, -1.761e-6, -1.897e-6, -1.364e-7
-0.601, 1.019e-9, -3.416e-8, -3.518e-8, -1.759e-6, -1.898e-6, -1.389e-7
-0.602, 7.955e-10, -3.430e-8, -3.510e-8, -1.757e-6, -1.898e-6, -1.414e-7
-0.603, 6.851e-10, -3.437e-8, -3.506e-8, -1.755e-6, -1.899e-6, -1.438e-7
-0.604, 8.081e-10, -3.435e-8, -3.516e-8, -1.753e-6, -1.899e-6, -1.465e-7
-0.605, 8.145e-10, -3.430e-8, -3.512e-8, -1.751e-6, -1.900e-6, -1.492e-7
-0.606, 7.450e-10, -3.433e-8, -3.507e-8, -1.749e-6, -1.901e-6, -1.516e-7
-0.607, 4.462e-10, -3.445e-8, -3.490e-8, -1.747e-6, -1.902e-6, -1.543e-7
-0.608, 1.847e-10, -3.465e-8, -3.483e-8, -1.745e-6, -1.902e-6, -1.569e-7
-0.609, 2.129e-10, -3.491e-8, -3.512e-8, -1.743e-6, -1.903e-6, -1.596e-7
-0.610, 2.268e-10, -3.486e-8, -3.509e-8, -1.741e-6, -1.903e-6, -1.622e-7
-0.611, 2.684e-10, -3.470e-8, -3.497e-8, -1.739e-6, -1.904e-6, -1.649e-7
-0.612, 1.302e-10, -3.481e-8, -3.494e-8, -1.736e-6, -1.904e-6, -1.678e-7
-0.613, 1.180e-10, -3.477e-8, -3.489e-8, -1.734e-6, -1.904e-6, -1.704e-7
-0.614, -9.990e-11, -3.492e-8, -3.482e-8, -1.732e-6, -1.905e-6, -1.731e-7
-0.615, -3.055e-10, -3.499e-8, -3.468e-8, -1.730e-6, -1.906e-6, -1.758e-7
-0.616, -1.687e-10, -3.486e-8, -3.470e-8, -1.728e-6, -1.906e-6, -1.785e-7
-0.617, -2.613e-10, -3.496e-8, -3.470e-8, -1.726e-6, -1.907e-6, -1.811e-7
-0.618, -5.248e-10, -3.500e-8, -3.447e-8, -1.724e-6, -1.908e-6, -1.835e-7
-0.619, -5.297e-10, -3.507e-8, -3.454e-8, -1.722e-6, -1.909e-6, -1.861e-7
-0.620, -7.958e-10, -3.530e-8, -3.451e-8, -1.721e-6, -1.909e-6, -1.887e-7
-0.621, -8.101e-10, -3.538e-8, -3.457e-8, -1.719e-6, -1.910e-6, -1.912e-7
-0.622, -1.198e-9, -3.576e-8, -3.456e-8, -1.716e-6, -1.910e-6, -1.937e-7
-0.623, -1.207e-9, -3.585e-8, -3.465e-8, -1.715e-6, -1.911e-6, -1.964e-7
-0.624, -1.405e-9, -3.595e-8, -3.454e-8, -1.713e-6, -1.912e-6, -1.990e-7
-0.625, -1.373e-9, -3.596e-8, -3.459e-8, -1.711e-6, -1.913e-6, -2.016e-7
-0.626, -1.533e-9, -3.609e-8, -3.456e-8, -1.710e-6, -1.914e-6, -2.043e-7
-0.627, -1.768e-9, -3.631e-8, -3.454e-8, -1.708e-6, -1.914e-6, -2.069e-7
-0.628, -1.906e-9, -3.638e-8, -3.448e-8, -1.706e-6, -1.915e-6, -2.095e-7
-0.629, -1.965e-9, -3.643e-8, -3.446e-8, -1.704e-6, -1.916e-6, -2.120e-7
-0.630, -1.944e-9, -3.644e-8, -3.449e-8, -1.701e-6, -1.916e-6, -2.148e-7
-0.631, -1.813e-9, -3.627e-8, -3.446e-8, -1.699e-6, -1.917e-6, -2.177e-7
-0.632, -1.810e-9, -3.611e-8, -3.430e-8, -1.697e-6, -1.918e-6, -2.205e-7
-0.633, -1.596e-9, -3.593e-8, -3.434e-8, -1.696e-6, -1.919e-6, -2.232e-7
-0.634, -1.665e-9, -3.594e-8, -3.427e-8, -1.694e-6, -1.920e-6, -2.260e-7
-0.635, -1.451e-9, -3.577e-8, -3.432e-8, -1.692e-6, -1.921e-6, -2.287e-7
-0.636, -1.274e-9, -3.576e-8, -3.448e-8, -1.691e-6, -1.922e-6, -2.314e-7
-0.637, -9.573e-10, -3.558e-8, -3.462e-8, -1.689e-6, -1.923e-6, -2.341e-7
-0.638, -8.131e-10, -3.546e-8, -3.465e-8, -1.687e-6, -1.924e-6, -2.365e-7
-0.639, -4.861e-10, -3.526e-8, -3.478e-8, -1.686e-6, -1.925e-6, -2.391e-7
-0.640, -3.611e-10, -3.501e-8, -3.465e-8, -1.685e-6, -1.926e-6, -2.417e-7
-0.641, -8.287e-11, -3.488e-8, -3.480e-8, -1.683e-6, -1.927e-6, -2.443e-7
-0.642, -9.246e-13, -3.476e-8, -3.476e-8, -1.682e-6, -1.929e-6, -2.467e-7
-0.643, 1.117e-10, -3.465e-8, -3.476e-8, -1.681e-6, -1.930e-6, -2.492e-7
-0.644, 1.326e-11, -3.473e-8, -3.474e-8, -1.679e-6, -1.931e-6, -2.515e-7
-0.645, 4.154e-11, -3.469e-8, -3.473e-8, -1.678e-6, -1.932e-6, -2.542e-7
-0.646, 2.276e-10, -3.459e-8, -3.482e-8, -1.677e-6, -1.933e-6, -2.567e-7
-0.647, 2.651e-10, -3.462e-8, -3.489e-8, -1.675e-6, -1.935e-6, -2.595e-7
-0.648, 4.078e-10, -3.455e-8, -3.496e-8, -1.674e-6, -1.936e-6, -2.621e-7
-0.649, 4.215e-10, -3.454e-8, -3.496e-8, -1.672e-6, -1.937e-6, -2.651e-7
-0.650, 3.085e-10, -3.461e-8, -3.491e-8, -1.670e-6, -1.938e-6, -2.677e-7
-0.651, 3.006e-10, -3.444e-8, -3.474e-8, -1.669e-6, -1.940e-6, -2.703e-7
-0.652, 4.565e-10, -3.431e-8, -3.477e-8, -1.668e-6, -1.941e-6, -2.730e-7
-0.653, 3.675e-10, -3.439e-8, -3.476e-8, -1.667e-6, -1.943e-6, -2.756e-7
-0.654, 3.742e-10, -3.432e-8, -3.469e-8, -1.666e-6, -1.945e-6, -2.782e-7
-0.655, 4.707e-10, -3.420e-8, -3.467e-8, -1.665e-6, -1.946e-6, -2.810e-7
-0.656, 4.435e-10, -3.426e-8, -3.471e-8, -1.664e-6, -1.947e-6, -2.835e-7
-0.657, 5.061e-10, -3.414e-8, -3.465e-8, -1.663e-6, -1.949e-6, -2.864e-7
-0.658, 4.873e-10, -3.405e-8, -3.454e-8, -1.662e-6, -1.951e-6, -2.889e-7
-0.659, 2.339e-10, -3.413e-8, -3.436e-8, -1.661e-6, -1.952e-6, -2.916e-7
-0.660, 1.270e-11, -3.429e-8, -3.431e-8, -1.660e-6, -1.954e-6, -2.943e-7
-0.661, 2.430e-10, -3.419e-8, -3.444e-8, -1.659e-6, -1.956e-6, -2.968e-7
-0.662, 2.780e-10, -3.430e-8, -3.458e-8, -1.658e-6, -1.957e-6, -2.996e-7
-0.663, 3.013e-10, -3.429e-8, -3.459e-8, -1.657e-6, -1.959e-6, -3.021e-7
-0.664, 1.831e-10, -3.437e-8, -3.456e-8, -1.656e-6, -1.961e-6, -3.050e-7
-0.665, 4.777e-11, -3.451e-8, -3.456e-8, -1.655e-6, -1.962e-6, -3.077e-7
-0.666, -7.280e-11, -3.461e-8, -3.454e-8, -1.654e-6, -1.964e-6, -3.104e-7
-0.667, -1.249e-10, -3.476e-8, -3.464e-8, -1.653e-6, -1.966e-6, -3.133e-7
-0.668, -1.231e-10, -3.474e-8, -3.462e-8, -1.652e-6, -1.968e-6, -3.158e-7
-0.669, -1.003e-10, -3.480e-8, -3.470e-8, -1.652e-6, -1.971e-6, -3.186e-7
-0.670, -1.084e-10, -3.484e-8, -3.473e-8, -1.651e-6, -1.973e-6, -3.216e-7
-0.671, 9.155e-11, -3.486e-8, -3.495e-8, -1.651e-6, -1.975e-6, -3.241e-7
-0.672, -7.081e-11, -3.488e-8, -3.481e-8, -1.650e-6, -1.977e-6, -3.272e-7
-0.673, -1.111e-10, -3.484e-8, -3.472e-8, -1.650e-6, -1.979e-6, -3.298e-7
-0.674, -1.103e-10, -3.486e-8, -3.475e-8, -1.649e-6, -1.981e-6, -3.327e-7
-0.675, -5.024e-11, -3.486e-8, -3.481e-8, -1.648e-6, -1.983e-6, -3.354e-7
-0.676, 8.069e-11, -3.477e-8, -3.485e-8, -1.648e-6, -1.986e-6, -3.381e-7
-0.677, 9.555e-11, -3.478e-8, -3.488e-8, -1.647e-6, -1.988e-6, -3.408e-7
-0.678, 1.147e-10, -3.479e-8, -3.490e-8, -1.647e-6, -1.990e-6, -3.435e-7
-0.679, 1.382e-10, -3.479e-8, -3.493e-8, -1.646e-6, -1.992e-6, -3.462e-7
-0.680, 1.661e-10, -3.479e-8, -3.495e-8, -1.646e-6, -1.995e-6, -3.489e-7
-0.681, 1.982e-10, -3.478e-8, -3.498e-8, -1.645e-6, -1.997e-6, -3.517e-7
-0.682, 2.347e-10, -3.478e-8, -3.501e-8, -1.645e-6, -1.999e-6, -3.544e-7
-0.683, 2.756e-10, -3.477e-8, -3.505e-8, -1.644e-6, -2.001e-6, -3.571e-7
-0.684, 3.207e-10, -3.476e-8, -3.508e-8, -1.644e-6, -2.004e-6, -3.598e-7
-0.685, 3.702e-10, -3.475e-8, -3.512e-8, -1.644e-6, -2.006e-6, -3.625e-7
-0.686, 4.240e-10, -3.473e-8, -3.516e-8, -1.643e-6, -2.008e-6, -3.652e-7
-0.687, 4.821e-10, -3.472e-8, -3.520e-8, -1.643e-6, -2.011e-6, -3.679e-7
-0.688, 5.446e-10, -3.470e-8, -3.524e-8, -1.643e-6, -2.013e-6, -3.707e-7
-0.689, 6.114e-10, -3.467e-8, -3.529e-8, -1.642e-6, -2.016e-6, -3.734e-7
-0.690, 6.825e-10, -3.465e-8, -3.533e-8, -1.642e-6, -2.018e-6, -3.761e-7
-0.691, 7.580e-10, -3.462e-8, -3.538e-8, -1.642e-6, -2.021e-6, -3.788e-7
-0.692, 8.377e-10, -3.459e-8, -3.543e-8, -1.642e-6, -2.023e-6, -3.815e-7
-0.693, 9.218e-10, -3.456e-8, -3.548e-8, -1.641e-6, -2.026e-6, -3.842e-7
-0.694, 1.010e-9, -3.453e-8, -3.554e-8, -1.641e-6, -2.028e-6, -3.869e-7
-0.695, 1.103e-9, -3.449e-8, -3.559e-8, -1.641e-6, -2.031e-6, -3.896e-7
-0.696, 1.200e-9, -3.445e-8, -3.565e-8, -1.641e-6, -2.033e-6, -3.923e-7
-0.697, 1.302e-9, -3.441e-8, -3.571e-8, -1.641e-6, -2.036e-6, -3.950e-7
-0.698, 1.407e-9, -3.437e-8, -3.578e-8, -1.641e-6, -2.039e-6, -3.977e-7
-0.699, 1.517e-9, -3.432e-8, -3.584e-8, -1.641e-6, -2.041e-6, -4.004e-7
-0.700, 1.632e-9, -3.427e-8, -3.591e-8, -1.641e-6, -2.044e-6, -4.032e-7
