Nov. 3, 2022   12:55:16
Square Wave Voltammetry
File: c:\users\fatemeh\onedrive - university of waterloo\ideation lab\experiments\antibiotic detection\vancomycin sensing (mahmoud's project)\vancomycin animal experiments\nov3.22\nov3.22\e#2\in animal\0 min\nov3, e#2, 0 min,m5, text file.txt
Data Source:  Experiment
Instrument Model:  CHI1040C
Data Proc:  Smoothing
Header: 
Note: 

Init E (V) = 0.2
Final E (V) = -0.7
Incr E (V) = 0.001
Amplitude (V) = 0.025
Frequency (Hz) = 100
Quiet Time (sec) = 20
Sensitivity (A/V) = 1e-4

E3 Scan On
Sens 3 = 1e-006

Results:

Channel 1:
Difference:

Forward:

Reverse:

Channel 3:
Difference:
Ep = -0.372V
ip = -6.316e-8A
Ap = -1.036e-8VA

Forward:

Reverse:

Potential/V, i1d/A, i1f/A, i1r/A, i3d/A, i3f/A, i3r/A

0.199, -1.705e-9, -3.555e-8, -3.385e-8, -3.796e-7, 9.884e-7, 1.368e-6
0.198, -1.598e-9, -3.551e-8, -3.391e-8, -3.778e-7, 9.751e-7, 1.353e-6
0.197, -1.493e-9, -3.546e-8, -3.397e-8, -3.760e-7, 9.621e-7, 1.338e-6
0.196, -1.389e-9, -3.541e-8, -3.403e-8, -3.742e-7, 9.493e-7, 1.324e-6
0.195, -1.286e-9, -3.537e-8, -3.409e-8, -3.725e-7, 9.367e-7, 1.309e-6
0.194, -1.185e-9, -3.533e-8, -3.415e-8, -3.708e-7, 9.243e-7, 1.295e-6
0.193, -1.085e-9, -3.529e-8, -3.421e-8, -3.692e-7, 9.122e-7, 1.281e-6
0.192, -9.864e-10, -3.525e-8, -3.427e-8, -3.676e-7, 9.003e-7, 1.268e-6
0.191, -8.893e-10, -3.522e-8, -3.433e-8, -3.660e-7, 8.886e-7, 1.255e-6
0.190, -7.936e-10, -3.518e-8, -3.439e-8, -3.644e-7, 8.772e-7, 1.242e-6
0.189, -6.993e-10, -3.515e-8, -3.445e-8, -3.629e-7, 8.660e-7, 1.229e-6
0.188, -6.063e-10, -3.512e-8, -3.451e-8, -3.614e-7, 8.550e-7, 1.216e-6
0.187, -5.147e-10, -3.509e-8, -3.457e-8, -3.599e-7, 8.443e-7, 1.204e-6
0.186, -4.245e-10, -3.506e-8, -3.464e-8, -3.585e-7, 8.338e-7, 1.192e-6
0.185, -3.357e-10, -3.503e-8, -3.470e-8, -3.571e-7, 8.235e-7, 1.181e-6
0.184, -2.483e-10, -3.501e-8, -3.476e-8, -3.557e-7, 8.135e-7, 1.169e-6
0.183, -1.622e-10, -3.499e-8, -3.483e-8, -3.544e-7, 8.036e-7, 1.158e-6
0.182, -7.751e-11, -3.497e-8, -3.489e-8, -3.531e-7, 7.941e-7, 1.147e-6
0.181, 5.810e-12, -3.495e-8, -3.495e-8, -3.518e-7, 7.847e-7, 1.137e-6
0.180, 8.775e-11, -3.493e-8, -3.502e-8, -3.506e-7, 7.756e-7, 1.126e-6
0.179, 1.683e-10, -3.491e-8, -3.508e-8, -3.494e-7, 7.667e-7, 1.116e-6
0.178, 2.475e-10, -3.490e-8, -3.515e-8, -3.482e-7, 7.580e-7, 1.106e-6
0.177, 3.253e-10, -3.488e-8, -3.521e-8, -3.471e-7, 7.496e-7, 1.097e-6
0.176, 4.017e-10, -3.487e-8, -3.528e-8, -3.460e-7, 7.414e-7, 1.087e-6
0.175, 4.768e-10, -3.486e-8, -3.534e-8, -3.449e-7, 7.334e-7, 1.078e-6
0.174, 4.392e-10, -3.500e-8, -3.544e-8, -3.433e-7, 7.276e-7, 1.071e-6
0.173, 4.952e-10, -3.507e-8, -3.556e-8, -3.427e-7, 7.216e-7, 1.064e-6
0.172, 9.050e-10, -3.495e-8, -3.585e-8, -3.422e-7, 7.158e-7, 1.058e-6
0.171, 1.238e-9, -3.489e-8, -3.613e-8, -3.394e-7, 7.107e-7, 1.050e-6
0.170, 1.355e-9, -3.487e-8, -3.623e-8, -3.395e-7, 7.039e-7, 1.043e-6
0.169, 1.341e-9, -3.491e-8, -3.625e-8, -3.385e-7, 6.980e-7, 1.037e-6
0.168, 1.386e-9, -3.477e-8, -3.615e-8, -3.381e-7, 6.916e-7, 1.030e-6
0.167, 1.467e-9, -3.468e-8, -3.615e-8, -3.369e-7, 6.864e-7, 1.023e-6
0.166, 1.333e-9, -3.477e-8, -3.610e-8, -3.362e-7, 6.812e-7, 1.017e-6
0.165, 1.496e-9, -3.474e-8, -3.624e-8, -3.354e-7, 6.760e-7, 1.011e-6
0.164, 1.549e-9, -3.472e-8, -3.626e-8, -3.349e-7, 6.701e-7, 1.005e-6
0.163, 1.605e-9, -3.465e-8, -3.625e-8, -3.347e-7, 6.638e-7, 9.985e-7
0.162, 1.535e-9, -3.471e-8, -3.624e-8, -3.341e-7, 6.579e-7, 9.921e-7
0.161, 1.559e-9, -3.483e-8, -3.638e-8, -3.335e-7, 6.520e-7, 9.855e-7
0.160, 1.729e-9, -3.478e-8, -3.651e-8, -3.315e-7, 6.461e-7, 9.777e-7
0.159, 1.679e-9, -3.487e-8, -3.655e-8, -3.308e-7, 6.398e-7, 9.705e-7
0.158, 1.765e-9, -3.480e-8, -3.656e-8, -3.302e-7, 6.339e-7, 9.641e-7
0.157, 1.616e-9, -3.478e-8, -3.639e-8, -3.301e-7, 6.282e-7, 9.583e-7
0.156, 1.485e-9, -3.481e-8, -3.630e-8, -3.301e-7, 6.223e-7, 9.524e-7
0.155, 1.077e-9, -3.497e-8, -3.604e-8, -3.300e-7, 6.165e-7, 9.466e-7
0.154, 7.383e-10, -3.507e-8, -3.581e-8, -3.301e-7, 6.106e-7, 9.407e-7
0.153, 4.572e-10, -3.523e-8, -3.568e-8, -3.306e-7, 6.047e-7, 9.353e-7
0.152, 5.727e-10, -3.526e-8, -3.584e-8, -3.303e-7, 5.993e-7, 9.297e-7
0.151, 3.897e-10, -3.538e-8, -3.577e-8, -3.300e-7, 5.933e-7, 9.233e-7
0.150, 2.571e-10, -3.540e-8, -3.565e-8, -3.278e-7, 5.877e-7, 9.155e-7
0.149, -8.157e-11, -3.555e-8, -3.547e-8, -3.279e-7, 5.815e-7, 9.093e-7
0.148, 1.550e-11, -3.554e-8, -3.556e-8, -3.278e-7, 5.758e-7, 9.036e-7
0.147, 1.602e-10, -3.548e-8, -3.564e-8, -3.283e-7, 5.700e-7, 8.983e-7
0.146, -1.049e-10, -3.564e-8, -3.554e-8, -3.283e-7, 5.649e-7, 8.932e-7
0.145, -1.555e-10, -3.569e-8, -3.553e-8, -3.281e-7, 5.601e-7, 8.881e-7
0.144, 2.374e-11, -3.570e-8, -3.573e-8, -3.283e-7, 5.550e-7, 8.833e-7
0.143, -6.559e-11, -3.555e-8, -3.549e-8, -3.281e-7, 5.500e-7, 8.781e-7
0.142, -6.556e-11, -3.551e-8, -3.544e-8, -3.280e-7, 5.449e-7, 8.729e-7
0.141, -3.051e-10, -3.557e-8, -3.526e-8, -3.282e-7, 5.398e-7, 8.681e-7
0.140, -2.768e-10, -3.538e-8, -3.511e-8, -3.280e-7, 5.347e-7, 8.628e-7
0.139, -2.296e-10, -3.530e-8, -3.507e-8, -3.280e-7, 5.296e-7, 8.576e-7
0.138, -4.618e-10, -3.545e-8, -3.499e-8, -3.281e-7, 5.245e-7, 8.525e-7
0.137, -5.891e-10, -3.543e-8, -3.484e-8, -3.274e-7, 5.207e-7, 8.481e-7
0.136, -5.240e-10, -3.521e-8, -3.468e-8, -3.270e-7, 5.164e-7, 8.434e-7
0.135, -5.670e-10, -3.506e-8, -3.450e-8, -3.263e-7, 5.122e-7, 8.385e-7
0.134, -4.276e-10, -3.492e-8, -3.449e-8, -3.258e-7, 5.076e-7, 8.335e-7
0.133, -6.109e-10, -3.508e-8, -3.447e-8, -3.255e-7, 5.032e-7, 8.287e-7
0.132, -6.106e-10, -3.507e-8, -3.446e-8, -3.253e-7, 4.982e-7, 8.236e-7
0.131, -5.966e-10, -3.503e-8, -3.444e-8, -3.255e-7, 4.932e-7, 8.187e-7
0.130, -7.478e-10, -3.509e-8, -3.434e-8, -3.242e-7, 4.898e-7, 8.140e-7
0.129, -4.846e-10, -3.502e-8, -3.454e-8, -3.234e-7, 4.856e-7, 8.090e-7
0.128, -7.821e-10, -3.509e-8, -3.431e-8, -3.231e-7, 4.809e-7, 8.040e-7
0.127, -1.014e-9, -3.517e-8, -3.415e-8, -3.228e-7, 4.764e-7, 7.992e-7
0.126, -6.789e-10, -3.495e-8, -3.427e-8, -3.225e-7, 4.718e-7, 7.944e-7
0.125, -6.001e-10, -3.475e-8, -3.415e-8, -3.223e-7, 4.675e-7, 7.898e-7
0.124, -7.025e-10, -3.486e-8, -3.416e-8, -3.217e-7, 4.629e-7, 7.847e-7
0.123, -8.289e-10, -3.498e-8, -3.415e-8, -3.211e-7, 4.586e-7, 7.797e-7
0.122, -7.832e-10, -3.494e-8, -3.416e-8, -3.206e-7, 4.542e-7, 7.748e-7
0.121, -9.619e-10, -3.493e-8, -3.397e-8, -3.201e-7, 4.496e-7, 7.697e-7
0.120, -6.977e-10, -3.471e-8, -3.401e-8, -3.196e-7, 4.452e-7, 7.648e-7
0.119, -7.186e-10, -3.478e-8, -3.406e-8, -3.186e-7, 4.414e-7, 7.600e-7
0.118, -7.961e-10, -3.481e-8, -3.402e-8, -3.185e-7, 4.368e-7, 7.553e-7
0.117, -7.818e-10, -3.480e-8, -3.402e-8, -3.177e-7, 4.324e-7, 7.502e-7
0.116, -7.158e-10, -3.477e-8, -3.406e-8, -3.176e-7, 4.277e-7, 7.453e-7
0.115, -7.156e-10, -3.468e-8, -3.397e-8, -3.172e-7, 4.230e-7, 7.402e-7
0.114, -8.432e-10, -3.474e-8, -3.389e-8, -3.162e-7, 4.188e-7, 7.350e-7
0.113, -7.071e-10, -3.463e-8, -3.392e-8, -3.155e-7, 4.143e-7, 7.298e-7
0.112, -6.656e-10, -3.444e-8, -3.377e-8, -3.148e-7, 4.097e-7, 7.246e-7
0.111, -7.448e-10, -3.449e-8, -3.374e-8, -3.158e-7, 4.051e-7, 7.209e-7
0.110, -8.320e-10, -3.442e-8, -3.359e-8, -3.158e-7, 4.011e-7, 7.169e-7
0.109, -1.013e-9, -3.454e-8, -3.352e-8, -3.156e-7, 3.971e-7, 7.126e-7
0.108, -1.013e-9, -3.455e-8, -3.354e-8, -3.152e-7, 3.925e-7, 7.077e-7
0.107, -1.187e-9, -3.469e-8, -3.351e-8, -3.144e-7, 3.883e-7, 7.027e-7
0.106, -9.434e-10, -3.460e-8, -3.366e-8, -3.141e-7, 3.838e-7, 6.979e-7
0.105, -6.581e-10, -3.457e-8, -3.391e-8, -3.133e-7, 3.797e-7, 6.930e-7
0.104, -5.646e-10, -3.450e-8, -3.393e-8, -3.127e-7, 3.755e-7, 6.882e-7
0.103, -8.451e-10, -3.469e-8, -3.385e-8, -3.120e-7, 3.712e-7, 6.832e-7
0.102, -8.718e-10, -3.472e-8, -3.385e-8, -3.115e-7, 3.673e-7, 6.788e-7
0.101, -9.958e-10, -3.480e-8, -3.381e-8, -3.130e-7, 3.632e-7, 6.762e-7
0.100, -9.004e-10, -3.473e-8, -3.383e-8, -3.132e-7, 3.599e-7, 6.731e-7
0.099, -8.856e-10, -3.474e-8, -3.386e-8, -3.131e-7, 3.565e-7, 6.695e-7
0.098, -9.941e-10, -3.480e-8, -3.381e-8, -3.124e-7, 3.532e-7, 6.656e-7
0.097, -9.936e-10, -3.474e-8, -3.374e-8, -3.124e-7, 3.494e-7, 6.618e-7
0.096, -1.010e-9, -3.481e-8, -3.380e-8, -3.124e-7, 3.454e-7, 6.578e-7
0.095, -8.930e-10, -3.465e-8, -3.376e-8, -3.123e-7, 3.416e-7, 6.539e-7
0.094, -7.021e-10, -3.467e-8, -3.396e-8, -3.123e-7, 3.379e-7, 6.501e-7
0.093, -6.274e-10, -3.455e-8, -3.393e-8, -3.120e-7, 3.341e-7, 6.462e-7
0.092, -6.078e-10, -3.450e-8, -3.389e-8, -3.116e-7, 3.306e-7, 6.422e-7
0.091, -4.547e-10, -3.448e-8, -3.403e-8, -3.112e-7, 3.270e-7, 6.382e-7
0.090, -7.612e-10, -3.470e-8, -3.394e-8, -3.107e-7, 3.235e-7, 6.342e-7
0.089, -7.032e-10, -3.457e-8, -3.386e-8, -3.109e-7, 3.196e-7, 6.306e-7
0.088, -5.752e-10, -3.449e-8, -3.392e-8, -3.107e-7, 3.161e-7, 6.268e-7
0.087, -4.836e-10, -3.456e-8, -3.407e-8, -3.101e-7, 3.126e-7, 6.227e-7
0.086, -4.155e-10, -3.453e-8, -3.412e-8, -3.100e-7, 3.089e-7, 6.189e-7
0.085, -3.512e-10, -3.455e-8, -3.420e-8, -3.100e-7, 3.054e-7, 6.155e-7
0.084, -2.800e-10, -3.452e-8, -3.424e-8, -3.100e-7, 3.018e-7, 6.118e-7
0.083, -2.759e-10, -3.458e-8, -3.431e-8, -3.097e-7, 2.986e-7, 6.083e-7
0.082, -1.725e-10, -3.451e-8, -3.433e-8, -3.091e-7, 2.952e-7, 6.043e-7
0.081, -4.642e-11, -3.437e-8, -3.433e-8, -3.091e-7, 2.918e-7, 6.008e-7
0.080, -3.634e-10, -3.450e-8, -3.413e-8, -3.090e-7, 2.883e-7, 5.973e-7
0.079, -3.046e-10, -3.453e-8, -3.423e-8, -3.089e-7, 2.850e-7, 5.939e-7
0.078, 5.610e-11, -3.442e-8, -3.447e-8, -3.089e-7, 2.816e-7, 5.905e-7
0.077, -1.950e-10, -3.455e-8, -3.435e-8, -3.084e-7, 2.786e-7, 5.869e-7
0.076, -2.232e-10, -3.466e-8, -3.444e-8, -3.082e-7, 2.750e-7, 5.832e-7
0.075, 1.124e-10, -3.444e-8, -3.455e-8, -3.076e-7, 2.720e-7, 5.796e-7
0.074, 2.045e-10, -3.441e-8, -3.461e-8, -3.074e-7, 2.689e-7, 5.763e-7
0.073, -9.235e-11, -3.449e-8, -3.439e-8, -3.071e-7, 2.659e-7, 5.730e-7
0.072, 3.952e-11, -3.445e-8, -3.449e-8, -3.067e-7, 2.629e-7, 5.696e-7
0.071, -1.015e-10, -3.452e-8, -3.442e-8, -3.067e-7, 2.598e-7, 5.665e-7
0.070, -3.265e-11, -3.448e-8, -3.445e-8, -3.067e-7, 2.567e-7, 5.634e-7
0.069, 1.699e-10, -3.436e-8, -3.453e-8, -3.067e-7, 2.537e-7, 5.604e-7
0.068, 3.003e-10, -3.430e-8, -3.460e-8, -3.065e-7, 2.507e-7, 5.572e-7
0.067, 2.548e-10, -3.422e-8, -3.448e-8, -3.063e-7, 2.478e-7, 5.541e-7
0.066, 3.115e-10, -3.414e-8, -3.445e-8, -3.063e-7, 2.447e-7, 5.510e-7
0.065, 5.832e-10, -3.391e-8, -3.449e-8, -3.063e-7, 2.416e-7, 5.480e-7
0.064, 6.049e-10, -3.392e-8, -3.453e-8, -3.062e-7, 2.388e-7, 5.450e-7
0.063, 1.008e-9, -3.364e-8, -3.465e-8, -3.060e-7, 2.360e-7, 5.419e-7
0.062, 1.168e-9, -3.357e-8, -3.474e-8, -3.058e-7, 2.330e-7, 5.388e-7
0.061, 1.184e-9, -3.367e-8, -3.486e-8, -3.058e-7, 2.301e-7, 5.359e-7
0.060, 1.294e-9, -3.359e-8, -3.488e-8, -3.057e-7, 2.272e-7, 5.329e-7
0.059, 1.174e-9, -3.374e-8, -3.491e-8, -3.059e-7, 2.243e-7, 5.302e-7
0.058, 1.414e-9, -3.357e-8, -3.498e-8, -3.062e-7, 2.214e-7, 5.276e-7
0.057, 1.325e-9, -3.353e-8, -3.485e-8, -3.062e-7, 2.186e-7, 5.248e-7
0.056, 1.398e-9, -3.336e-8, -3.476e-8, -3.067e-7, 2.156e-7, 5.223e-7
0.055, 1.432e-9, -3.338e-8, -3.481e-8, -3.069e-7, 2.126e-7, 5.195e-7
0.054, 1.530e-9, -3.327e-8, -3.480e-8, -3.071e-7, 2.096e-7, 5.168e-7
0.053, 1.688e-9, -3.312e-8, -3.481e-8, -3.074e-7, 2.069e-7, 5.143e-7
0.052, 1.833e-9, -3.303e-8, -3.486e-8, -3.073e-7, 2.041e-7, 5.114e-7
0.051, 1.763e-9, -3.304e-8, -3.480e-8, -3.072e-7, 2.014e-7, 5.086e-7
0.050, 1.665e-9, -3.306e-8, -3.473e-8, -3.075e-7, 1.982e-7, 5.057e-7
0.049, 1.749e-9, -3.298e-8, -3.473e-8, -3.078e-7, 1.953e-7, 5.031e-7
0.048, 1.992e-9, -3.287e-8, -3.486e-8, -3.077e-7, 1.925e-7, 5.002e-7
0.047, 2.234e-9, -3.265e-8, -3.489e-8, -3.077e-7, 1.897e-7, 4.974e-7
0.046, 2.266e-9, -3.257e-8, -3.484e-8, -3.076e-7, 1.870e-7, 4.947e-7
0.045, 2.054e-9, -3.262e-8, -3.468e-8, -3.077e-7, 1.842e-7, 4.919e-7
0.044, 1.847e-9, -3.276e-8, -3.461e-8, -3.080e-7, 1.813e-7, 4.893e-7
0.043, 1.764e-9, -3.276e-8, -3.452e-8, -3.081e-7, 1.782e-7, 4.863e-7
0.042, 1.386e-9, -3.299e-8, -3.438e-8, -3.085e-7, 1.752e-7, 4.837e-7
0.041, 1.457e-9, -3.279e-8, -3.425e-8, -3.089e-7, 1.723e-7, 4.812e-7
0.040, 1.680e-9, -3.274e-8, -3.442e-8, -3.089e-7, 1.693e-7, 4.782e-7
0.039, 1.473e-9, -3.273e-8, -3.420e-8, -3.092e-7, 1.661e-7, 4.753e-7
0.038, 1.492e-9, -3.275e-8, -3.424e-8, -3.098e-7, 1.628e-7, 4.727e-7
0.037, 1.434e-9, -3.275e-8, -3.418e-8, -3.098e-7, 1.600e-7, 4.698e-7
0.036, 1.143e-9, -3.295e-8, -3.409e-8, -3.093e-7, 1.573e-7, 4.666e-7
0.035, 9.513e-10, -3.307e-8, -3.402e-8, -3.094e-7, 1.544e-7, 4.638e-7
0.034, 7.978e-10, -3.319e-8, -3.399e-8, -3.098e-7, 1.512e-7, 4.610e-7
0.033, 7.352e-10, -3.321e-8, -3.395e-8, -3.099e-7, 1.484e-7, 4.582e-7
0.032, 4.439e-10, -3.339e-8, -3.384e-8, -3.099e-7, 1.455e-7, 4.554e-7
0.031, 3.099e-10, -3.354e-8, -3.385e-8, -3.102e-7, 1.424e-7, 4.526e-7
0.030, 3.675e-12, -3.379e-8, -3.380e-8, -3.101e-7, 1.395e-7, 4.495e-7
0.029, -1.514e-11, -3.389e-8, -3.388e-8, -3.100e-7, 1.366e-7, 4.466e-7
0.028, -5.513e-11, -3.394e-8, -3.389e-8, -3.102e-7, 1.339e-7, 4.440e-7
0.027, -2.901e-10, -3.423e-8, -3.394e-8, -3.101e-7, 1.312e-7, 4.413e-7
0.026, -9.354e-10, -3.467e-8, -3.373e-8, -3.102e-7, 1.286e-7, 4.388e-7
0.025, -1.122e-9, -3.479e-8, -3.366e-8, -3.105e-7, 1.255e-7, 4.360e-7
0.024, -9.989e-10, -3.482e-8, -3.382e-8, -3.106e-7, 1.227e-7, 4.334e-7
0.023, -1.009e-9, -3.491e-8, -3.390e-8, -3.106e-7, 1.200e-7, 4.306e-7
0.022, -9.046e-10, -3.488e-8, -3.398e-8, -3.107e-7, 1.170e-7, 4.278e-7
0.021, -8.478e-10, -3.481e-8, -3.396e-8, -3.109e-7, 1.143e-7, 4.252e-7
0.020, -1.025e-9, -3.495e-8, -3.393e-8, -3.108e-7, 1.115e-7, 4.224e-7
0.019, -1.105e-9, -3.489e-8, -3.379e-8, -3.114e-7, 1.085e-7, 4.199e-7
0.018, -1.162e-9, -3.506e-8, -3.390e-8, -3.117e-7, 1.056e-7, 4.173e-7
0.017, -1.320e-9, -3.529e-8, -3.397e-8, -3.121e-7, 1.028e-7, 4.149e-7
0.016, -1.340e-9, -3.537e-8, -3.403e-8, -3.125e-7, 1.000e-7, 4.125e-7
0.015, -1.341e-9, -3.541e-8, -3.407e-8, -3.128e-7, 9.711e-8, 4.099e-7
0.014, -1.486e-9, -3.566e-8, -3.417e-8, -3.132e-7, 9.435e-8, 4.076e-7
0.013, -1.628e-9, -3.582e-8, -3.419e-8, -3.134e-7, 9.173e-8, 4.052e-7
0.012, -1.580e-9, -3.579e-8, -3.421e-8, -3.135e-7, 8.915e-8, 4.027e-7
0.011, -1.338e-9, -3.569e-8, -3.435e-8, -3.135e-7, 8.679e-8, 4.003e-7
0.010, -1.240e-9, -3.556e-8, -3.432e-8, -3.137e-7, 8.424e-8, 3.979e-7
0.009, -1.327e-9, -3.562e-8, -3.429e-8, -3.142e-7, 8.148e-8, 3.956e-7
0.008, -1.166e-9, -3.555e-8, -3.438e-8, -3.143e-7, 7.889e-8, 3.932e-7
0.007, -1.185e-9, -3.568e-8, -3.450e-8, -3.140e-7, 7.651e-8, 3.905e-7
0.006, -1.316e-9, -3.575e-8, -3.443e-8, -3.138e-7, 7.405e-8, 3.879e-7
0.005, -1.357e-9, -3.571e-8, -3.435e-8, -3.138e-7, 7.168e-8, 3.855e-7
0.004, -1.413e-9, -3.572e-8, -3.430e-8, -3.134e-7, 6.930e-8, 3.827e-7
0.003, -1.190e-9, -3.562e-8, -3.443e-8, -3.134e-7, 6.688e-8, 3.803e-7
0.002, -1.058e-9, -3.562e-8, -3.456e-8, -3.135e-7, 6.439e-8, 3.779e-7
0.001, -9.919e-10, -3.555e-8, -3.456e-8, -3.134e-7, 6.212e-8, 3.755e-7
-0.000, -9.626e-10, -3.545e-8, -3.449e-8, -3.137e-7, 5.962e-8, 3.733e-7
-0.001, -9.954e-10, -3.547e-8, -3.448e-8, -3.141e-7, 5.700e-8, 3.711e-7
-0.002, -1.194e-9, -3.546e-8, -3.426e-8, -3.141e-7, 5.456e-8, 3.687e-7
-0.003, -1.431e-9, -3.556e-8, -3.412e-8, -3.140e-7, 5.204e-8, 3.660e-7
-0.004, -1.401e-9, -3.554e-8, -3.413e-8, -3.142e-7, 4.945e-8, 3.637e-7
-0.005, -1.309e-9, -3.551e-8, -3.420e-8, -3.142e-7, 4.701e-8, 3.612e-7
-0.006, -1.179e-9, -3.543e-8, -3.425e-8, -3.142e-7, 4.461e-8, 3.588e-7
-0.007, -1.036e-9, -3.527e-8, -3.423e-8, -3.141e-7, 4.225e-8, 3.564e-7
-0.008, -9.768e-10, -3.525e-8, -3.428e-8, -3.140e-7, 3.970e-8, 3.537e-7
-0.009, -1.250e-9, -3.539e-8, -3.414e-8, -3.137e-7, 3.735e-8, 3.511e-7
-0.010, -1.274e-9, -3.547e-8, -3.420e-8, -3.136e-7, 3.507e-8, 3.487e-7
-0.011, -1.173e-9, -3.539e-8, -3.422e-8, -3.132e-7, 3.293e-8, 3.461e-7
-0.012, -1.058e-9, -3.534e-8, -3.428e-8, -3.130e-7, 3.053e-8, 3.435e-7
-0.013, -7.828e-10, -3.528e-8, -3.450e-8, -3.133e-7, 2.795e-8, 3.413e-7
-0.014, -5.921e-10, -3.525e-8, -3.466e-8, -3.134e-7, 2.556e-8, 3.390e-7
-0.015, -6.950e-10, -3.532e-8, -3.463e-8, -3.132e-7, 2.340e-8, 3.366e-7
-0.016, -7.134e-10, -3.544e-8, -3.473e-8, -3.133e-7, 2.102e-8, 3.343e-7
-0.017, -8.780e-10, -3.545e-8, -3.458e-8, -3.131e-7, 1.876e-8, 3.319e-7
-0.018, -6.757e-10, -3.525e-8, -3.457e-8, -3.130e-7, 1.634e-8, 3.294e-7
-0.019, -2.911e-10, -3.498e-8, -3.469e-8, -3.131e-7, 1.413e-8, 3.272e-7
-0.020, -3.857e-10, -3.490e-8, -3.452e-8, -3.134e-7, 1.168e-8, 3.251e-7
-0.021, -7.441e-10, -3.504e-8, -3.430e-8, -3.130e-7, 9.360e-9, 3.223e-7
-0.022, -8.377e-10, -3.504e-8, -3.420e-8, -3.131e-7, 6.834e-9, 3.199e-7
-0.023, -3.480e-10, -3.484e-8, -3.449e-8, -3.131e-7, 4.353e-9, 3.175e-7
-0.024, -2.728e-10, -3.481e-8, -3.453e-8, -3.132e-7, 2.081e-9, 3.152e-7
-0.025, -3.059e-10, -3.472e-8, -3.441e-8, -3.134e-7, -3.368e-10, 3.130e-7
-0.026, -4.601e-11, -3.450e-8, -3.446e-8, -3.136e-7, -2.825e-9, 3.108e-7
-0.027, -1.662e-10, -3.455e-8, -3.438e-8, -3.139e-7, -5.207e-9, 3.086e-7
-0.028, -2.832e-10, -3.455e-8, -3.426e-8, -3.139e-7, -7.583e-9, 3.064e-7
-0.029, -2.762e-10, -3.451e-8, -3.423e-8, -3.143e-7, -1.002e-8, 3.042e-7
-0.030, -2.376e-10, -3.459e-8, -3.435e-8, -3.144e-7, -1.226e-8, 3.021e-7
-0.031, -1.555e-10, -3.456e-8, -3.440e-8, -3.143e-7, -1.442e-8, 2.999e-7
-0.032, -1.680e-10, -3.456e-8, -3.440e-8, -3.142e-7, -1.672e-8, 2.975e-7
-0.033, -2.030e-11, -3.456e-8, -3.454e-8, -3.140e-7, -1.897e-8, 2.950e-7
-0.034, 1.273e-11, -3.466e-8, -3.467e-8, -3.141e-7, -2.120e-8, 2.929e-7
-0.035, -2.531e-11, -3.468e-8, -3.466e-8, -3.140e-7, -2.342e-8, 2.906e-7
-0.036, 4.851e-11, -3.458e-8, -3.463e-8, -3.141e-7, -2.558e-8, 2.885e-7
-0.037, 8.552e-11, -3.459e-8, -3.467e-8, -3.143e-7, -2.786e-8, 2.864e-7
-0.038, 9.995e-11, -3.457e-8, -3.467e-8, -3.149e-7, -3.049e-8, 2.844e-7
-0.039, 1.009e-10, -3.464e-8, -3.475e-8, -3.146e-7, -3.246e-8, 2.822e-7
-0.040, 1.077e-10, -3.453e-8, -3.464e-8, -3.144e-7, -3.447e-8, 2.799e-7
-0.041, 3.170e-11, -3.462e-8, -3.466e-8, -3.143e-7, -3.666e-8, 2.776e-7
-0.042, -1.198e-10, -3.462e-8, -3.450e-8, -3.145e-7, -3.878e-8, 2.757e-7
-0.043, 1.286e-10, -3.458e-8, -3.471e-8, -3.150e-7, -4.103e-8, 2.740e-7
-0.044, 2.819e-10, -3.453e-8, -3.481e-8, -3.151e-7, -4.326e-8, 2.718e-7
-0.045, 3.540e-10, -3.449e-8, -3.484e-8, -3.154e-7, -4.539e-8, 2.700e-7
-0.046, 1.929e-10, -3.468e-8, -3.487e-8, -3.158e-7, -4.769e-8, 2.681e-7
-0.047, 8.800e-11, -3.476e-8, -3.484e-8, -3.161e-7, -4.996e-8, 2.661e-7
-0.048, 3.073e-10, -3.460e-8, -3.490e-8, -3.166e-7, -5.218e-8, 2.644e-7
-0.049, 1.383e-10, -3.478e-8, -3.492e-8, -3.165e-7, -5.433e-8, 2.622e-7
-0.050, 1.390e-10, -3.465e-8, -3.479e-8, -3.166e-7, -5.625e-8, 2.603e-7
-0.051, 3.365e-10, -3.474e-8, -3.508e-8, -3.168e-7, -5.825e-8, 2.585e-7
-0.052, 3.537e-10, -3.471e-8, -3.507e-8, -3.170e-7, -6.022e-8, 2.568e-7
-0.053, 1.345e-10, -3.476e-8, -3.489e-8, -3.166e-7, -6.198e-8, 2.546e-7
-0.054, -5.494e-11, -3.481e-8, -3.475e-8, -3.167e-7, -6.412e-8, 2.526e-7
-0.055, 4.814e-11, -3.480e-8, -3.485e-8, -3.167e-7, -6.595e-8, 2.508e-7
-0.056, 5.410e-11, -3.492e-8, -3.498e-8, -3.169e-7, -6.810e-8, 2.488e-7
-0.057, 5.829e-12, -3.512e-8, -3.512e-8, -3.171e-7, -7.013e-8, 2.470e-7
-0.058, 1.528e-10, -3.507e-8, -3.523e-8, -3.171e-7, -7.206e-8, 2.451e-7
-0.059, 3.992e-10, -3.502e-8, -3.542e-8, -3.174e-7, -7.403e-8, 2.433e-7
-0.060, 2.570e-10, -3.510e-8, -3.536e-8, -3.175e-7, -7.589e-8, 2.416e-7
-0.061, 1.564e-10, -3.518e-8, -3.534e-8, -3.181e-7, -7.794e-8, 2.402e-7
-0.062, -4.707e-11, -3.523e-8, -3.518e-8, -3.184e-7, -8.008e-8, 2.384e-7
-0.063, -2.320e-10, -3.524e-8, -3.500e-8, -3.187e-7, -8.210e-8, 2.366e-7
-0.064, -1.830e-10, -3.508e-8, -3.490e-8, -3.188e-7, -8.416e-8, 2.346e-7
-0.065, -2.663e-10, -3.495e-8, -3.468e-8, -3.189e-7, -8.618e-8, 2.327e-7
-0.066, -2.079e-10, -3.497e-8, -3.476e-8, -3.193e-7, -8.837e-8, 2.310e-7
-0.067, -3.711e-10, -3.511e-8, -3.474e-8, -3.196e-7, -9.029e-8, 2.293e-7
-0.068, -7.590e-10, -3.526e-8, -3.450e-8, -3.201e-7, -9.235e-8, 2.278e-7
-0.069, -1.199e-9, -3.546e-8, -3.426e-8, -3.199e-7, -9.413e-8, 2.258e-7
-0.070, -8.970e-10, -3.547e-8, -3.457e-8, -3.204e-7, -9.621e-8, 2.242e-7
-0.071, -8.135e-10, -3.541e-8, -3.460e-8, -3.208e-7, -9.811e-8, 2.227e-7
-0.072, -9.970e-10, -3.546e-8, -3.446e-8, -3.211e-7, -9.997e-8, 2.211e-7
-0.073, -9.740e-10, -3.533e-8, -3.436e-8, -3.211e-7, -1.018e-7, 2.194e-7
-0.074, -7.729e-10, -3.529e-8, -3.452e-8, -3.214e-7, -1.039e-7, 2.174e-7
-0.075, -1.028e-9, -3.543e-8, -3.440e-8, -3.215e-7, -1.058e-7, 2.157e-7
-0.076, -1.009e-9, -3.534e-8, -3.433e-8, -3.215e-7, -1.076e-7, 2.138e-7
-0.077, -1.085e-9, -3.542e-8, -3.434e-8, -3.220e-7, -1.097e-7, 2.123e-7
-0.078, -8.815e-10, -3.536e-8, -3.448e-8, -3.220e-7, -1.116e-7, 2.104e-7
-0.079, -1.059e-9, -3.543e-8, -3.437e-8, -3.221e-7, -1.135e-7, 2.086e-7
-0.080, -1.114e-9, -3.542e-8, -3.431e-8, -3.223e-7, -1.155e-7, 2.068e-7
-0.081, -7.905e-10, -3.515e-8, -3.436e-8, -3.223e-7, -1.173e-7, 2.051e-7
-0.082, -1.139e-9, -3.543e-8, -3.429e-8, -3.224e-7, -1.190e-7, 2.034e-7
-0.083, -1.210e-9, -3.545e-8, -3.424e-8, -3.222e-7, -1.205e-7, 2.016e-7
-0.084, -1.230e-9, -3.544e-8, -3.421e-8, -3.223e-7, -1.223e-7, 2.000e-7
-0.085, -1.319e-9, -3.555e-8, -3.423e-8, -3.224e-7, -1.241e-7, 1.983e-7
-0.086, -1.164e-9, -3.546e-8, -3.430e-8, -3.223e-7, -1.258e-7, 1.965e-7
-0.087, -1.441e-9, -3.556e-8, -3.412e-8, -3.217e-7, -1.273e-7, 1.944e-7
-0.088, -1.332e-9, -3.548e-8, -3.414e-8, -3.221e-7, -1.291e-7, 1.930e-7
-0.089, -1.310e-9, -3.552e-8, -3.421e-8, -3.224e-7, -1.310e-7, 1.913e-7
-0.090, -1.171e-9, -3.543e-8, -3.426e-8, -3.225e-7, -1.326e-7, 1.899e-7
-0.091, -9.314e-10, -3.532e-8, -3.439e-8, -3.227e-7, -1.346e-7, 1.881e-7
-0.092, -8.023e-10, -3.519e-8, -3.439e-8, -3.226e-7, -1.362e-7, 1.864e-7
-0.093, -6.994e-10, -3.521e-8, -3.451e-8, -3.228e-7, -1.379e-7, 1.849e-7
-0.094, -6.467e-10, -3.521e-8, -3.457e-8, -3.230e-7, -1.397e-7, 1.833e-7
-0.095, -7.993e-10, -3.527e-8, -3.447e-8, -3.227e-7, -1.410e-7, 1.817e-7
-0.096, -5.280e-10, -3.506e-8, -3.453e-8, -3.231e-7, -1.428e-7, 1.802e-7
-0.097, -5.953e-10, -3.503e-8, -3.443e-8, -3.230e-7, -1.445e-7, 1.785e-7
-0.098, -4.039e-10, -3.489e-8, -3.448e-8, -3.227e-7, -1.459e-7, 1.768e-7
-0.099, -3.398e-10, -3.497e-8, -3.463e-8, -3.225e-7, -1.474e-7, 1.751e-7
-0.100, -4.584e-10, -3.499e-8, -3.453e-8, -3.223e-7, -1.489e-7, 1.735e-7
-0.101, -5.244e-10, -3.507e-8, -3.455e-8, -3.223e-7, -1.505e-7, 1.718e-7
-0.102, -3.808e-10, -3.505e-8, -3.467e-8, -3.223e-7, -1.520e-7, 1.703e-7
-0.103, -3.813e-10, -3.521e-8, -3.483e-8, -3.224e-7, -1.535e-7, 1.689e-7
-0.104, -4.497e-10, -3.520e-8, -3.475e-8, -3.224e-7, -1.551e-7, 1.673e-7
-0.105, -5.909e-10, -3.531e-8, -3.472e-8, -3.223e-7, -1.565e-7, 1.659e-7
-0.106, -5.294e-10, -3.531e-8, -3.478e-8, -3.222e-7, -1.578e-7, 1.643e-7
-0.107, -4.337e-10, -3.512e-8, -3.469e-8, -3.221e-7, -1.593e-7, 1.628e-7
-0.108, -6.367e-10, -3.530e-8, -3.467e-8, -3.221e-7, -1.608e-7, 1.613e-7
-0.109, -5.413e-10, -3.530e-8, -3.476e-8, -3.224e-7, -1.626e-7, 1.599e-7
-0.110, -8.084e-10, -3.560e-8, -3.479e-8, -3.225e-7, -1.641e-7, 1.584e-7
-0.111, -7.515e-10, -3.549e-8, -3.474e-8, -3.224e-7, -1.655e-7, 1.570e-7
-0.112, -8.127e-10, -3.555e-8, -3.473e-8, -3.222e-7, -1.668e-7, 1.554e-7
-0.113, -7.652e-10, -3.557e-8, -3.481e-8, -3.223e-7, -1.682e-7, 1.541e-7
-0.114, -9.450e-10, -3.568e-8, -3.473e-8, -3.225e-7, -1.696e-7, 1.528e-7
-0.115, -1.067e-9, -3.577e-8, -3.470e-8, -3.224e-7, -1.709e-7, 1.516e-7
-0.116, -1.274e-9, -3.577e-8, -3.450e-8, -3.225e-7, -1.722e-7, 1.503e-7
-0.117, -1.220e-9, -3.585e-8, -3.463e-8, -3.220e-7, -1.732e-7, 1.487e-7
-0.118, -1.240e-9, -3.595e-8, -3.471e-8, -3.223e-7, -1.747e-7, 1.477e-7
-0.119, -1.426e-9, -3.604e-8, -3.462e-8, -3.223e-7, -1.760e-7, 1.463e-7
-0.120, -1.530e-9, -3.614e-8, -3.461e-8, -3.219e-7, -1.771e-7, 1.448e-7
-0.121, -1.407e-9, -3.608e-8, -3.467e-8, -3.219e-7, -1.784e-7, 1.435e-7
-0.122, -1.345e-9, -3.612e-8, -3.478e-8, -3.223e-7, -1.799e-7, 1.423e-7
-0.123, -1.515e-9, -3.620e-8, -3.468e-8, -3.218e-7, -1.809e-7, 1.409e-7
-0.124, -1.621e-9, -3.622e-8, -3.460e-8, -3.217e-7, -1.820e-7, 1.398e-7
-0.125, -1.648e-9, -3.634e-8, -3.469e-8, -3.215e-7, -1.830e-7, 1.384e-7
-0.126, -1.568e-9, -3.638e-8, -3.481e-8, -3.207e-7, -1.840e-7, 1.368e-7
-0.127, -1.684e-9, -3.641e-8, -3.473e-8, -3.203e-7, -1.849e-7, 1.354e-7
-0.128, -1.619e-9, -3.640e-8, -3.478e-8, -3.197e-7, -1.856e-7, 1.341e-7
-0.129, -1.589e-9, -3.642e-8, -3.484e-8, -3.194e-7, -1.865e-7, 1.330e-7
-0.130, -1.729e-9, -3.664e-8, -3.491e-8, -3.190e-7, -1.871e-7, 1.318e-7
-0.131, -1.737e-9, -3.675e-8, -3.501e-8, -3.186e-7, -1.878e-7, 1.308e-7
-0.132, -1.646e-9, -3.670e-8, -3.506e-8, -3.185e-7, -1.889e-7, 1.296e-7
-0.133, -1.597e-9, -3.668e-8, -3.508e-8, -3.183e-7, -1.897e-7, 1.286e-7
-0.134, -1.577e-9, -3.653e-8, -3.496e-8, -3.179e-7, -1.905e-7, 1.274e-7
-0.135, -1.873e-9, -3.667e-8, -3.480e-8, -3.176e-7, -1.911e-7, 1.265e-7
-0.136, -1.622e-9, -3.655e-8, -3.493e-8, -3.179e-7, -1.921e-7, 1.258e-7
-0.137, -1.593e-9, -3.644e-8, -3.485e-8, -3.176e-7, -1.931e-7, 1.245e-7
-0.138, -1.313e-9, -3.617e-8, -3.485e-8, -3.174e-7, -1.939e-7, 1.236e-7
-0.139, -1.293e-9, -3.615e-8, -3.486e-8, -3.171e-7, -1.947e-7, 1.224e-7
-0.140, -1.211e-9, -3.609e-8, -3.487e-8, -3.169e-7, -1.954e-7, 1.215e-7
-0.141, -1.017e-9, -3.604e-8, -3.502e-8, -3.166e-7, -1.962e-7, 1.204e-7
-0.142, -8.032e-10, -3.592e-8, -3.512e-8, -3.161e-7, -1.968e-7, 1.193e-7
-0.143, -7.790e-10, -3.580e-8, -3.503e-8, -3.157e-7, -1.976e-7, 1.181e-7
-0.144, -7.420e-10, -3.578e-8, -3.504e-8, -3.158e-7, -1.984e-7, 1.173e-7
-0.145, -9.203e-10, -3.591e-8, -3.499e-8, -3.152e-7, -1.989e-7, 1.163e-7
-0.146, -1.024e-9, -3.602e-8, -3.500e-8, -3.146e-7, -1.995e-7, 1.152e-7
-0.147, -8.650e-10, -3.590e-8, -3.503e-8, -3.147e-7, -2.003e-7, 1.144e-7
-0.148, -8.900e-10, -3.585e-8, -3.496e-8, -3.143e-7, -2.008e-7, 1.135e-7
-0.149, -9.012e-10, -3.571e-8, -3.481e-8, -3.138e-7, -2.014e-7, 1.124e-7
-0.150, -7.951e-10, -3.547e-8, -3.468e-8, -3.135e-7, -2.021e-7, 1.114e-7
-0.151, -7.529e-10, -3.546e-8, -3.471e-8, -3.136e-7, -2.031e-7, 1.104e-7
-0.152, -4.982e-10, -3.523e-8, -3.474e-8, -3.130e-7, -2.037e-7, 1.093e-7
-0.153, -4.253e-10, -3.523e-8, -3.481e-8, -3.132e-7, -2.046e-7, 1.086e-7
-0.154, -3.350e-10, -3.506e-8, -3.473e-8, -3.133e-7, -2.056e-7, 1.077e-7
-0.155, -4.223e-10, -3.502e-8, -3.459e-8, -3.133e-7, -2.063e-7, 1.069e-7
-0.156, -3.320e-10, -3.510e-8, -3.477e-8, -3.131e-7, -2.070e-7, 1.061e-7
-0.157, -5.954e-11, -3.486e-8, -3.480e-8, -3.131e-7, -2.079e-7, 1.052e-7
-0.158, -1.531e-10, -3.480e-8, -3.465e-8, -3.129e-7, -2.085e-7, 1.044e-7
-0.159, -6.533e-11, -3.455e-8, -3.448e-8, -3.127e-7, -2.092e-7, 1.035e-7
-0.160, -1.995e-10, -3.472e-8, -3.452e-8, -3.124e-7, -2.097e-7, 1.027e-7
-0.161, -6.427e-11, -3.466e-8, -3.460e-8, -3.125e-7, -2.105e-7, 1.020e-7
-0.162, -1.463e-10, -3.474e-8, -3.460e-8, -3.122e-7, -2.112e-7, 1.011e-7
-0.163, -7.334e-11, -3.462e-8, -3.455e-8, -3.124e-7, -2.119e-7, 1.005e-7
-0.164, -1.545e-10, -3.474e-8, -3.458e-8, -3.124e-7, -2.127e-7, 9.973e-8
-0.165, 4.295e-11, -3.477e-8, -3.481e-8, -3.121e-7, -2.133e-7, 9.879e-8
-0.166, 1.640e-10, -3.470e-8, -3.486e-8, -3.124e-7, -2.142e-7, 9.818e-8
-0.167, 4.334e-10, -3.461e-8, -3.504e-8, -3.117e-7, -2.146e-7, 9.708e-8
-0.168, 7.497e-10, -3.446e-8, -3.521e-8, -3.116e-7, -2.153e-7, 9.638e-8
-0.169, 1.027e-9, -3.432e-8, -3.534e-8, -3.117e-7, -2.159e-7, 9.583e-8
-0.170, 8.188e-10, -3.442e-8, -3.524e-8, -3.115e-7, -2.165e-7, 9.494e-8
-0.171, 1.048e-9, -3.432e-8, -3.537e-8, -3.111e-7, -2.170e-7, 9.411e-8
-0.172, 1.143e-9, -3.434e-8, -3.549e-8, -3.108e-7, -2.175e-7, 9.331e-8
-0.173, 1.271e-9, -3.433e-8, -3.561e-8, -3.103e-7, -2.181e-7, 9.225e-8
-0.174, 1.251e-9, -3.416e-8, -3.541e-8, -3.102e-7, -2.186e-7, 9.157e-8
-0.175, 1.046e-9, -3.412e-8, -3.517e-8, -3.100e-7, -2.190e-7, 9.094e-8
-0.176, 8.365e-10, -3.426e-8, -3.510e-8, -3.097e-7, -2.194e-7, 9.033e-8
-0.177, 8.174e-10, -3.437e-8, -3.518e-8, -3.094e-7, -2.198e-7, 8.958e-8
-0.178, 6.627e-10, -3.450e-8, -3.517e-8, -3.089e-7, -2.201e-7, 8.879e-8
-0.179, 4.600e-10, -3.466e-8, -3.512e-8, -3.086e-7, -2.206e-7, 8.795e-8
-0.180, 2.250e-10, -3.469e-8, -3.491e-8, -3.083e-7, -2.211e-7, 8.718e-8
-0.181, 1.926e-10, -3.466e-8, -3.485e-8, -3.081e-7, -2.215e-7, 8.662e-8
-0.182, -3.124e-11, -3.469e-8, -3.466e-8, -3.079e-7, -2.219e-7, 8.592e-8
-0.183, -8.449e-11, -3.481e-8, -3.473e-8, -3.075e-7, -2.223e-7, 8.525e-8
-0.184, -8.412e-11, -3.473e-8, -3.464e-8, -3.075e-7, -2.229e-7, 8.459e-8
-0.185, -2.962e-10, -3.472e-8, -3.443e-8, -3.070e-7, -2.232e-7, 8.386e-8
-0.186, -3.708e-10, -3.468e-8, -3.431e-8, -3.068e-7, -2.234e-7, 8.337e-8
-0.187, -5.145e-10, -3.483e-8, -3.432e-8, -3.062e-7, -2.236e-7, 8.261e-8
-0.188, -3.889e-10, -3.469e-8, -3.430e-8, -3.060e-7, -2.240e-7, 8.198e-8
-0.189, -5.360e-10, -3.481e-8, -3.427e-8, -3.057e-7, -2.243e-7, 8.139e-8
-0.190, -8.135e-10, -3.483e-8, -3.401e-8, -3.055e-7, -2.247e-7, 8.086e-8
-0.191, -1.157e-9, -3.495e-8, -3.379e-8, -3.055e-7, -2.250e-7, 8.050e-8
-0.192, -1.480e-9, -3.508e-8, -3.360e-8, -3.052e-7, -2.254e-7, 7.986e-8
-0.193, -1.352e-9, -3.499e-8, -3.364e-8, -3.049e-7, -2.258e-7, 7.914e-8
-0.194, -1.458e-9, -3.490e-8, -3.345e-8, -3.046e-7, -2.262e-7, 7.840e-8
-0.195, -1.162e-9, -3.466e-8, -3.350e-8, -3.049e-7, -2.268e-7, 7.807e-8
-0.196, -1.445e-9, -3.471e-8, -3.327e-8, -3.044e-7, -2.270e-7, 7.741e-8
-0.197, -1.145e-9, -3.454e-8, -3.339e-8, -3.043e-7, -2.274e-7, 7.684e-8
-0.198, -1.131e-9, -3.460e-8, -3.347e-8, -3.042e-7, -2.278e-7, 7.635e-8
-0.199, -1.265e-9, -3.483e-8, -3.356e-8, -3.042e-7, -2.282e-7, 7.604e-8
-0.200, -9.983e-10, -3.470e-8, -3.370e-8, -3.041e-7, -2.283e-7, 7.580e-8
-0.201, -1.131e-9, -3.476e-8, -3.363e-8, -3.042e-7, -2.288e-7, 7.545e-8
-0.202, -1.078e-9, -3.478e-8, -3.370e-8, -3.041e-7, -2.293e-7, 7.482e-8
-0.203, -9.265e-10, -3.475e-8, -3.383e-8, -3.037e-7, -2.294e-7, 7.424e-8
-0.204, -6.136e-10, -3.468e-8, -3.406e-8, -3.035e-7, -2.297e-7, 7.379e-8
-0.205, -7.024e-10, -3.469e-8, -3.399e-8, -3.036e-7, -2.301e-7, 7.348e-8
-0.206, -8.241e-10, -3.478e-8, -3.396e-8, -3.033e-7, -2.303e-7, 7.300e-8
-0.207, -9.390e-10, -3.494e-8, -3.400e-8, -3.031e-7, -2.306e-7, 7.247e-8
-0.208, -8.440e-10, -3.507e-8, -3.423e-8, -3.029e-7, -2.310e-7, 7.196e-8
-0.209, -9.530e-10, -3.511e-8, -3.415e-8, -3.031e-7, -2.315e-7, 7.161e-8
-0.210, -9.707e-10, -3.515e-8, -3.418e-8, -3.033e-7, -2.320e-7, 7.131e-8
-0.211, -8.722e-10, -3.505e-8, -3.418e-8, -3.036e-7, -2.326e-7, 7.102e-8
-0.212, -7.826e-10, -3.513e-8, -3.435e-8, -3.034e-7, -2.329e-7, 7.053e-8
-0.213, -5.278e-10, -3.493e-8, -3.441e-8, -3.032e-7, -2.332e-7, 7.006e-8
-0.214, -3.339e-10, -3.490e-8, -3.456e-8, -3.035e-7, -2.338e-7, 6.971e-8
-0.215, -1.081e-10, -3.495e-8, -3.484e-8, -3.034e-7, -2.343e-7, 6.915e-8
-0.216, -1.875e-10, -3.498e-8, -3.479e-8, -3.037e-7, -2.349e-7, 6.883e-8
-0.217, -3.705e-10, -3.510e-8, -3.473e-8, -3.037e-7, -2.354e-7, 6.834e-8
-0.218, -3.010e-10, -3.511e-8, -3.481e-8, -3.036e-7, -2.359e-7, 6.775e-8
-0.219, -1.409e-10, -3.510e-8, -3.496e-8, -3.037e-7, -2.365e-7, 6.721e-8
-0.220, -1.247e-10, -3.503e-8, -3.490e-8, -3.036e-7, -2.369e-7, 6.665e-8
-0.221, 1.185e-10, -3.487e-8, -3.499e-8, -3.036e-7, -2.374e-7, 6.622e-8
-0.222, 1.697e-10, -3.482e-8, -3.499e-8, -3.038e-7, -2.378e-7, 6.601e-8
-0.223, 2.477e-10, -3.495e-8, -3.520e-8, -3.038e-7, -2.381e-7, 6.565e-8
-0.224, 2.538e-10, -3.512e-8, -3.537e-8, -3.036e-7, -2.385e-7, 6.508e-8
-0.225, 3.817e-10, -3.511e-8, -3.549e-8, -3.034e-7, -2.388e-7, 6.461e-8
-0.226, 2.830e-10, -3.513e-8, -3.541e-8, -3.034e-7, -2.393e-7, 6.410e-8
-0.227, 3.353e-10, -3.516e-8, -3.550e-8, -3.034e-7, -2.397e-7, 6.368e-8
-0.228, 2.467e-10, -3.523e-8, -3.548e-8, -3.034e-7, -2.401e-7, 6.330e-8
-0.229, 5.167e-10, -3.502e-8, -3.554e-8, -3.037e-7, -2.405e-7, 6.315e-8
-0.230, 3.077e-10, -3.518e-8, -3.549e-8, -3.035e-7, -2.406e-7, 6.291e-8
-0.231, 3.142e-10, -3.520e-8, -3.552e-8, -3.033e-7, -2.409e-7, 6.243e-8
-0.232, 4.774e-11, -3.531e-8, -3.536e-8, -3.033e-7, -2.411e-7, 6.221e-8
-0.233, 2.325e-10, -3.516e-8, -3.539e-8, -3.036e-7, -2.416e-7, 6.191e-8
-0.234, 2.408e-10, -3.517e-8, -3.541e-8, -3.035e-7, -2.419e-7, 6.153e-8
-0.235, 3.030e-10, -3.526e-8, -3.556e-8, -3.036e-7, -2.425e-7, 6.110e-8
-0.236, 2.793e-10, -3.529e-8, -3.557e-8, -3.037e-7, -2.429e-7, 6.080e-8
-0.237, 1.083e-10, -3.540e-8, -3.551e-8, -3.036e-7, -2.432e-7, 6.039e-8
-0.238, 7.981e-11, -3.540e-8, -3.548e-8, -3.035e-7, -2.435e-7, 5.996e-8
-0.239, 1.567e-10, -3.544e-8, -3.559e-8, -3.034e-7, -2.438e-7, 5.952e-8
-0.240, 2.803e-10, -3.545e-8, -3.573e-8, -3.033e-7, -2.443e-7, 5.896e-8
-0.241, 4.558e-10, -3.546e-8, -3.592e-8, -3.034e-7, -2.446e-7, 5.873e-8
-0.242, 4.143e-10, -3.548e-8, -3.589e-8, -3.032e-7, -2.449e-7, 5.828e-8
-0.243, 4.033e-10, -3.554e-8, -3.594e-8, -3.029e-7, -2.450e-7, 5.793e-8
-0.244, 3.158e-10, -3.571e-8, -3.603e-8, -3.026e-7, -2.451e-7, 5.752e-8
-0.245, 5.415e-10, -3.564e-8, -3.618e-8, -3.025e-7, -2.452e-7, 5.724e-8
-0.246, 3.019e-10, -3.589e-8, -3.620e-8, -3.027e-7, -2.458e-7, 5.694e-8
-0.247, 4.748e-10, -3.577e-8, -3.624e-8, -3.029e-7, -2.461e-7, 5.672e-8
-0.248, 5.711e-10, -3.580e-8, -3.637e-8, -3.027e-7, -2.465e-7, 5.615e-8
-0.249, 2.447e-10, -3.602e-8, -3.627e-8, -3.024e-7, -2.469e-7, 5.551e-8
-0.250, 2.306e-10, -3.602e-8, -3.625e-8, -3.025e-7, -2.474e-7, 5.509e-8
-0.251, 1.347e-10, -3.599e-8, -3.612e-8, -3.023e-7, -2.475e-7, 5.476e-8
-0.252, 2.001e-11, -3.598e-8, -3.600e-8, -3.020e-7, -2.477e-7, 5.431e-8
-0.253, -4.846e-10, -3.612e-8, -3.563e-8, -3.018e-7, -2.481e-7, 5.379e-8
-0.254, -7.138e-10, -3.622e-8, -3.551e-8, -3.016e-7, -2.485e-7, 5.316e-8
-0.255, -1.031e-9, -3.634e-8, -3.531e-8, -3.018e-7, -2.489e-7, 5.286e-8
-0.256, -1.141e-9, -3.638e-8, -3.524e-8, -3.020e-7, -2.494e-7, 5.263e-8
-0.257, -1.186e-9, -3.637e-8, -3.518e-8, -3.021e-7, -2.498e-7, 5.228e-8
-0.258, -1.078e-9, -3.629e-8, -3.522e-8, -3.022e-7, -2.502e-7, 5.196e-8
-0.259, -1.100e-9, -3.629e-8, -3.519e-8, -3.021e-7, -2.504e-7, 5.163e-8
-0.260, -1.083e-9, -3.630e-8, -3.522e-8, -3.021e-7, -2.508e-7, 5.125e-8
-0.261, -1.223e-9, -3.636e-8, -3.514e-8, -3.022e-7, -2.513e-7, 5.089e-8
-0.262, -1.237e-9, -3.636e-8, -3.512e-8, -3.021e-7, -2.517e-7, 5.044e-8
-0.263, -1.328e-9, -3.635e-8, -3.502e-8, -3.019e-7, -2.519e-7, 5.002e-8
-0.264, -1.483e-9, -3.625e-8, -3.477e-8, -3.019e-7, -2.521e-7, 4.982e-8
-0.265, -1.279e-9, -3.610e-8, -3.482e-8, -3.020e-7, -2.525e-7, 4.948e-8
-0.266, -1.193e-9, -3.597e-8, -3.478e-8, -3.021e-7, -2.530e-7, 4.913e-8
-0.267, -1.013e-9, -3.576e-8, -3.475e-8, -3.023e-7, -2.535e-7, 4.881e-8
-0.268, -9.524e-10, -3.565e-8, -3.470e-8, -3.023e-7, -2.536e-7, 4.865e-8
-0.269, -1.116e-9, -3.573e-8, -3.462e-8, -3.023e-7, -2.539e-7, 4.840e-8
-0.270, -1.445e-9, -3.582e-8, -3.438e-8, -3.022e-7, -2.542e-7, 4.800e-8
-0.271, -1.641e-9, -3.589e-8, -3.425e-8, -3.023e-7, -2.546e-7, 4.767e-8
-0.272, -1.733e-9, -3.592e-8, -3.418e-8, -3.024e-7, -2.552e-7, 4.726e-8
-0.273, -1.715e-9, -3.580e-8, -3.409e-8, -3.027e-7, -2.555e-7, 4.717e-8
-0.274, -2.026e-9, -3.593e-8, -3.390e-8, -3.029e-7, -2.560e-7, 4.691e-8
-0.275, -1.903e-9, -3.584e-8, -3.394e-8, -3.034e-7, -2.566e-7, 4.683e-8
-0.276, -1.901e-9, -3.569e-8, -3.379e-8, -3.037e-7, -2.570e-7, 4.675e-8
-0.277, -1.719e-9, -3.556e-8, -3.384e-8, -3.043e-7, -2.575e-7, 4.677e-8
-0.278, -1.810e-9, -3.565e-8, -3.384e-8, -3.042e-7, -2.578e-7, 4.637e-8
-0.279, -1.646e-9, -3.546e-8, -3.382e-8, -3.046e-7, -2.586e-7, 4.601e-8
-0.280, -1.611e-9, -3.545e-8, -3.384e-8, -3.050e-7, -2.591e-7, 4.594e-8
-0.281, -1.356e-9, -3.525e-8, -3.390e-8, -3.056e-7, -2.596e-7, 4.592e-8
-0.282, -1.435e-9, -3.536e-8, -3.393e-8, -3.057e-7, -2.600e-7, 4.571e-8
-0.283, -1.300e-9, -3.531e-8, -3.401e-8, -3.061e-7, -2.606e-7, 4.549e-8
-0.284, -9.710e-10, -3.516e-8, -3.419e-8, -3.064e-7, -2.611e-7, 4.527e-8
-0.285, -8.171e-10, -3.511e-8, -3.430e-8, -3.069e-7, -2.619e-7, 4.502e-8
-0.286, -6.866e-10, -3.498e-8, -3.429e-8, -3.073e-7, -2.625e-7, 4.487e-8
-0.287, -4.435e-10, -3.480e-8, -3.435e-8, -3.078e-7, -2.631e-7, 4.465e-8
-0.288, -2.132e-10, -3.466e-8, -3.445e-8, -3.079e-7, -2.637e-7, 4.419e-8
-0.289, -1.873e-10, -3.471e-8, -3.453e-8, -3.080e-7, -2.641e-7, 4.387e-8
-0.290, 2.711e-11, -3.475e-8, -3.477e-8, -3.082e-7, -2.646e-7, 4.354e-8
-0.291, 1.543e-10, -3.486e-8, -3.502e-8, -3.087e-7, -2.652e-7, 4.346e-8
-0.292, 4.166e-10, -3.488e-8, -3.530e-8, -3.093e-7, -2.660e-7, 4.331e-8
-0.293, 5.444e-10, -3.479e-8, -3.534e-8, -3.097e-7, -2.667e-7, 4.298e-8
-0.294, 3.951e-10, -3.497e-8, -3.536e-8, -3.105e-7, -2.676e-7, 4.287e-8
-0.295, 6.234e-10, -3.486e-8, -3.548e-8, -3.107e-7, -2.681e-7, 4.257e-8
-0.296, 4.875e-10, -3.500e-8, -3.549e-8, -3.111e-7, -2.688e-7, 4.224e-8
-0.297, 5.375e-10, -3.491e-8, -3.545e-8, -3.115e-7, -2.695e-7, 4.197e-8
-0.298, 7.360e-10, -3.489e-8, -3.563e-8, -3.117e-7, -2.699e-7, 4.181e-8
-0.299, 8.370e-10, -3.484e-8, -3.567e-8, -3.119e-7, -2.705e-7, 4.144e-8
-0.300, 7.608e-10, -3.491e-8, -3.567e-8, -3.123e-7, -2.712e-7, 4.103e-8
-0.301, 1.039e-9, -3.476e-8, -3.580e-8, -3.127e-7, -2.719e-7, 4.085e-8
-0.302, 1.239e-9, -3.470e-8, -3.594e-8, -3.131e-7, -2.725e-7, 4.052e-8
-0.303, 1.205e-9, -3.467e-8, -3.588e-8, -3.134e-7, -2.730e-7, 4.039e-8
-0.304, 1.374e-9, -3.463e-8, -3.600e-8, -3.136e-7, -2.735e-7, 4.016e-8
-0.305, 1.311e-9, -3.466e-8, -3.598e-8, -3.141e-7, -2.741e-7, 3.993e-8
-0.306, 1.156e-9, -3.470e-8, -3.585e-8, -3.144e-7, -2.747e-7, 3.964e-8
-0.307, 1.126e-9, -3.468e-8, -3.581e-8, -3.146e-7, -2.752e-7, 3.936e-8
-0.308, 1.142e-9, -3.470e-8, -3.584e-8, -3.149e-7, -2.759e-7, 3.894e-8
-0.309, 1.160e-9, -3.460e-8, -3.576e-8, -3.153e-7, -2.766e-7, 3.872e-8
-0.310, 1.185e-9, -3.455e-8, -3.574e-8, -3.159e-7, -2.773e-7, 3.860e-8
-0.311, 1.189e-9, -3.461e-8, -3.579e-8, -3.162e-7, -2.779e-7, 3.828e-8
-0.312, 1.024e-9, -3.481e-8, -3.584e-8, -3.163e-7, -2.785e-7, 3.781e-8
-0.313, 9.120e-10, -3.486e-8, -3.577e-8, -3.167e-7, -2.793e-7, 3.734e-8
-0.314, 7.573e-10, -3.505e-8, -3.580e-8, -3.171e-7, -2.801e-7, 3.696e-8
-0.315, 6.059e-10, -3.505e-8, -3.565e-8, -3.177e-7, -2.810e-7, 3.673e-8
-0.316, 3.223e-10, -3.522e-8, -3.554e-8, -3.181e-7, -2.815e-7, 3.654e-8
-0.317, 7.508e-11, -3.530e-8, -3.538e-8, -3.184e-7, -2.822e-7, 3.625e-8
-0.318, 8.936e-11, -3.528e-8, -3.537e-8, -3.190e-7, -2.830e-7, 3.602e-8
-0.319, 2.915e-11, -3.526e-8, -3.529e-8, -3.197e-7, -2.837e-7, 3.605e-8
-0.320, -5.809e-11, -3.525e-8, -3.519e-8, -3.201e-7, -2.844e-7, 3.572e-8
-0.321, -2.827e-10, -3.527e-8, -3.499e-8, -3.203e-7, -2.849e-7, 3.541e-8
-0.322, -1.317e-10, -3.516e-8, -3.503e-8, -3.208e-7, -2.855e-7, 3.525e-8
-0.323, -3.297e-11, -3.516e-8, -3.513e-8, -3.213e-7, -2.864e-7, 3.491e-8
-0.324, -1.429e-10, -3.525e-8, -3.511e-8, -3.221e-7, -2.875e-7, 3.452e-8
-0.325, -9.148e-11, -3.526e-8, -3.517e-8, -3.229e-7, -2.888e-7, 3.409e-8
-0.326, -3.803e-10, -3.542e-8, -3.504e-8, -3.237e-7, -2.899e-7, 3.376e-8
-0.327, -4.950e-10, -3.542e-8, -3.493e-8, -3.241e-7, -2.907e-7, 3.341e-8
-0.328, -6.313e-10, -3.553e-8, -3.490e-8, -3.244e-7, -2.913e-7, 3.310e-8
-0.329, -5.887e-10, -3.552e-8, -3.493e-8, -3.251e-7, -2.923e-7, 3.272e-8
-0.330, -6.800e-10, -3.552e-8, -3.484e-8, -3.258e-7, -2.936e-7, 3.216e-8
-0.331, -7.970e-10, -3.554e-8, -3.475e-8, -3.267e-7, -2.950e-7, 3.175e-8
-0.332, -6.295e-10, -3.544e-8, -3.481e-8, -3.275e-7, -2.963e-7, 3.123e-8
-0.333, -9.087e-10, -3.554e-8, -3.463e-8, -3.282e-7, -2.976e-7, 3.060e-8
-0.334, -8.418e-10, -3.536e-8, -3.452e-8, -3.290e-7, -2.991e-7, 2.993e-8
-0.335, -7.519e-10, -3.539e-8, -3.463e-8, -3.300e-7, -3.006e-7, 2.935e-8
-0.336, -7.366e-10, -3.557e-8, -3.483e-8, -3.308e-7, -3.021e-7, 2.870e-8
-0.337, -8.845e-10, -3.567e-8, -3.479e-8, -3.317e-7, -3.035e-7, 2.813e-8
-0.338, -8.596e-10, -3.558e-8, -3.472e-8, -3.329e-7, -3.052e-7, 2.768e-8
-0.339, -9.473e-10, -3.555e-8, -3.460e-8, -3.340e-7, -3.069e-7, 2.713e-8
-0.340, -1.060e-9, -3.541e-8, -3.434e-8, -3.352e-7, -3.085e-7, 2.667e-8
-0.341, -9.820e-10, -3.524e-8, -3.426e-8, -3.365e-7, -3.103e-7, 2.625e-8
-0.342, -9.832e-10, -3.520e-8, -3.422e-8, -3.375e-7, -3.118e-7, 2.570e-8
-0.343, -6.211e-10, -3.499e-8, -3.437e-8, -3.387e-7, -3.135e-7, 2.515e-8
-0.344, -7.144e-10, -3.502e-8, -3.431e-8, -3.401e-7, -3.154e-7, 2.468e-8
-0.345, -6.054e-10, -3.491e-8, -3.431e-8, -3.411e-7, -3.171e-7, 2.404e-8
-0.346, -3.550e-10, -3.484e-8, -3.449e-8, -3.425e-7, -3.189e-7, 2.355e-8
-0.347, -4.626e-10, -3.481e-8, -3.434e-8, -3.436e-7, -3.207e-7, 2.287e-8
-0.348, -2.551e-10, -3.462e-8, -3.437e-8, -3.448e-7, -3.225e-7, 2.232e-8
-0.349, 7.235e-11, -3.435e-8, -3.443e-8, -3.455e-7, -3.236e-7, 2.192e-8
-0.350, -9.259e-11, -3.445e-8, -3.435e-8, -3.468e-7, -3.252e-7, 2.153e-8
-0.351, -1.297e-11, -3.442e-8, -3.441e-8, -3.478e-7, -3.265e-7, 2.123e-8
-0.352, -1.674e-10, -3.446e-8, -3.430e-8, -3.486e-7, -3.280e-7, 2.065e-8
-0.353, -2.657e-10, -3.449e-8, -3.422e-8, -3.496e-7, -3.295e-7, 2.013e-8
-0.354, -2.237e-10, -3.447e-8, -3.425e-8, -3.503e-7, -3.308e-7, 1.952e-8
-0.355, -1.029e-10, -3.443e-8, -3.433e-8, -3.512e-7, -3.321e-7, 1.909e-8
-0.356, 1.026e-10, -3.435e-8, -3.446e-8, -3.521e-7, -3.335e-7, 1.866e-8
-0.357, 1.679e-10, -3.425e-8, -3.442e-8, -3.525e-7, -3.343e-7, 1.823e-8
-0.358, 3.041e-10, -3.439e-8, -3.470e-8, -3.529e-7, -3.351e-7, 1.780e-8
-0.359, 3.397e-10, -3.444e-8, -3.478e-8, -3.530e-7, -3.360e-7, 1.706e-8
-0.360, 2.151e-10, -3.449e-8, -3.471e-8, -3.535e-7, -3.370e-7, 1.646e-8
-0.361, 1.761e-10, -3.442e-8, -3.460e-8, -3.541e-7, -3.379e-7, 1.618e-8
-0.362, 9.786e-11, -3.447e-8, -3.457e-8, -3.545e-7, -3.386e-7, 1.592e-8
-0.363, 1.758e-10, -3.435e-8, -3.452e-8, -3.547e-7, -3.390e-7, 1.571e-8
-0.364, 2.648e-10, -3.437e-8, -3.464e-8, -3.548e-7, -3.394e-7, 1.535e-8
-0.365, 3.204e-10, -3.429e-8, -3.461e-8, -3.548e-7, -3.399e-7, 1.489e-8
-0.366, 4.489e-10, -3.431e-8, -3.476e-8, -3.549e-7, -3.404e-7, 1.450e-8
-0.367, 3.443e-10, -3.437e-8, -3.471e-8, -3.549e-7, -3.408e-7, 1.407e-8
-0.368, 4.135e-10, -3.439e-8, -3.481e-8, -3.545e-7, -3.412e-7, 1.333e-8
-0.369, 3.876e-10, -3.446e-8, -3.485e-8, -3.547e-7, -3.418e-7, 1.293e-8
-0.370, 4.873e-10, -3.459e-8, -3.508e-8, -3.549e-7, -3.422e-7, 1.268e-8
-0.371, 3.026e-10, -3.477e-8, -3.507e-8, -3.550e-7, -3.428e-7, 1.218e-8
-0.372, 2.337e-10, -3.474e-8, -3.497e-8, -3.552e-7, -3.435e-7, 1.170e-8
-0.373, 2.172e-10, -3.468e-8, -3.490e-8, -3.549e-7, -3.435e-7, 1.142e-8
-0.374, 1.398e-10, -3.467e-8, -3.481e-8, -3.545e-7, -3.436e-7, 1.089e-8
-0.375, 2.167e-10, -3.459e-8, -3.481e-8, -3.541e-7, -3.437e-7, 1.043e-8
-0.376, 3.471e-10, -3.452e-8, -3.486e-8, -3.541e-7, -3.442e-7, 9.873e-9
-0.377, 4.549e-10, -3.439e-8, -3.485e-8, -3.542e-7, -3.446e-7, 9.507e-9
-0.378, 2.034e-10, -3.448e-8, -3.469e-8, -3.541e-7, -3.453e-7, 8.837e-9
-0.379, 3.581e-10, -3.436e-8, -3.472e-8, -3.538e-7, -3.457e-7, 8.118e-9
-0.380, 4.646e-10, -3.427e-8, -3.474e-8, -3.537e-7, -3.462e-7, 7.476e-9
-0.381, 1.364e-10, -3.442e-8, -3.456e-8, -3.533e-7, -3.467e-7, 6.631e-9
-0.382, 2.375e-10, -3.440e-8, -3.464e-8, -3.538e-7, -3.474e-7, 6.319e-9
-0.383, 2.189e-10, -3.451e-8, -3.473e-8, -3.536e-7, -3.478e-7, 5.801e-9
-0.384, 1.087e-10, -3.454e-8, -3.465e-8, -3.535e-7, -3.485e-7, 5.053e-9
-0.385, 1.906e-10, -3.442e-8, -3.461e-8, -3.534e-7, -3.489e-7, 4.479e-9
-0.386, 1.858e-10, -3.450e-8, -3.469e-8, -3.537e-7, -3.495e-7, 4.192e-9
-0.387, 1.840e-10, -3.451e-8, -3.469e-8, -3.536e-7, -3.500e-7, 3.574e-9
-0.388, 3.458e-11, -3.468e-8, -3.471e-8, -3.538e-7, -3.508e-7, 2.923e-9
-0.389, 4.544e-11, -3.483e-8, -3.488e-8, -3.538e-7, -3.515e-7, 2.238e-9
-0.390, -3.589e-11, -3.488e-8, -3.484e-8, -3.541e-7, -3.524e-7, 1.691e-9
-0.391, -7.351e-12, -3.508e-8, -3.507e-8, -3.545e-7, -3.532e-7, 1.260e-9
-0.392, -1.010e-10, -3.518e-8, -3.508e-8, -3.543e-7, -3.537e-7, 5.594e-10
-0.393, 1.682e-11, -3.518e-8, -3.520e-8, -3.542e-7, -3.544e-7, -2.315e-10
-0.394, 1.239e-10, -3.514e-8, -3.526e-8, -3.540e-7, -3.548e-7, -7.678e-10
-0.395, 1.626e-10, -3.503e-8, -3.520e-8, -3.538e-7, -3.552e-7, -1.338e-9
-0.396, 2.344e-10, -3.502e-8, -3.525e-8, -3.537e-7, -3.556e-7, -1.874e-9
-0.397, 9.352e-11, -3.507e-8, -3.517e-8, -3.533e-7, -3.558e-7, -2.432e-9
-0.398, -2.014e-10, -3.523e-8, -3.503e-8, -3.533e-7, -3.564e-7, -3.162e-9
-0.399, -5.577e-10, -3.545e-8, -3.489e-8, -3.528e-7, -3.568e-7, -4.039e-9
-0.400, -7.239e-10, -3.545e-8, -3.472e-8, -3.524e-7, -3.573e-7, -4.913e-9
-0.401, -4.384e-10, -3.537e-8, -3.493e-8, -3.521e-7, -3.578e-7, -5.678e-9
-0.402, -4.277e-10, -3.547e-8, -3.504e-8, -3.521e-7, -3.582e-7, -6.119e-9
-0.403, -3.001e-10, -3.535e-8, -3.505e-8, -3.519e-7, -3.585e-7, -6.635e-9
-0.404, -2.113e-10, -3.524e-8, -3.502e-8, -3.513e-7, -3.587e-7, -7.361e-9
-0.405, -4.285e-10, -3.537e-8, -3.494e-8, -3.507e-7, -3.588e-7, -8.126e-9
-0.406, -4.445e-10, -3.543e-8, -3.499e-8, -3.507e-7, -3.595e-7, -8.825e-9
-0.407, -4.901e-10, -3.535e-8, -3.486e-8, -3.504e-7, -3.599e-7, -9.593e-9
-0.408, -4.521e-10, -3.537e-8, -3.492e-8, -3.499e-7, -3.602e-7, -1.035e-8
-0.409, -2.667e-10, -3.528e-8, -3.501e-8, -3.495e-7, -3.604e-7, -1.090e-8
-0.410, 4.329e-11, -3.512e-8, -3.516e-8, -3.491e-7, -3.605e-7, -1.137e-8
-0.411, 2.687e-10, -3.512e-8, -3.539e-8, -3.486e-7, -3.606e-7, -1.204e-8
-0.412, 5.372e-10, -3.497e-8, -3.551e-8, -3.482e-7, -3.609e-7, -1.271e-8
-0.413, 6.171e-10, -3.499e-8, -3.560e-8, -3.476e-7, -3.611e-7, -1.349e-8
-0.414, 5.575e-10, -3.510e-8, -3.566e-8, -3.473e-7, -3.615e-7, -1.415e-8
-0.415, 7.199e-10, -3.493e-8, -3.565e-8, -3.468e-7, -3.615e-7, -1.476e-8
-0.416, 7.497e-10, -3.485e-8, -3.560e-8, -3.463e-7, -3.616e-7, -1.529e-8
-0.417, 8.705e-10, -3.473e-8, -3.560e-8, -3.461e-7, -3.619e-7, -1.584e-8
-0.418, 9.654e-10, -3.456e-8, -3.552e-8, -3.455e-7, -3.619e-7, -1.643e-8
-0.419, 9.777e-10, -3.443e-8, -3.541e-8, -3.452e-7, -3.622e-7, -1.708e-8
-0.420, 1.116e-9, -3.431e-8, -3.543e-8, -3.446e-7, -3.624e-7, -1.789e-8
-0.421, 1.299e-9, -3.423e-8, -3.553e-8, -3.440e-7, -3.625e-7, -1.854e-8
-0.422, 1.505e-9, -3.407e-8, -3.557e-8, -3.435e-7, -3.628e-7, -1.928e-8
-0.423, 1.454e-9, -3.408e-8, -3.553e-8, -3.431e-7, -3.630e-7, -1.984e-8
-0.424, 1.606e-9, -3.403e-8, -3.564e-8, -3.425e-7, -3.630e-7, -2.053e-8
-0.425, 1.656e-9, -3.401e-8, -3.566e-8, -3.418e-7, -3.630e-7, -2.118e-8
-0.426, 1.503e-9, -3.412e-8, -3.562e-8, -3.413e-7, -3.634e-7, -2.204e-8
-0.427, 1.498e-9, -3.400e-8, -3.550e-8, -3.406e-7, -3.633e-7, -2.268e-8
-0.428, 1.082e-9, -3.435e-8, -3.544e-8, -3.402e-7, -3.635e-7, -2.323e-8
-0.429, 1.001e-9, -3.439e-8, -3.539e-8, -3.394e-7, -3.634e-7, -2.410e-8
-0.430, 1.244e-9, -3.442e-8, -3.567e-8, -3.390e-7, -3.637e-7, -2.468e-8
-0.431, 1.193e-9, -3.443e-8, -3.563e-8, -3.384e-7, -3.637e-7, -2.531e-8
-0.432, 1.147e-9, -3.446e-8, -3.561e-8, -3.377e-7, -3.638e-7, -2.606e-8
-0.433, 1.043e-9, -3.459e-8, -3.563e-8, -3.370e-7, -3.638e-7, -2.680e-8
-0.434, 7.878e-10, -3.464e-8, -3.543e-8, -3.365e-7, -3.639e-7, -2.736e-8
-0.435, 6.679e-10, -3.476e-8, -3.543e-8, -3.360e-7, -3.640e-7, -2.802e-8
-0.436, 4.543e-10, -3.500e-8, -3.545e-8, -3.355e-7, -3.641e-7, -2.866e-8
-0.437, 5.375e-10, -3.490e-8, -3.544e-8, -3.349e-7, -3.641e-7, -2.921e-8
-0.438, 4.476e-10, -3.485e-8, -3.530e-8, -3.343e-7, -3.640e-7, -2.963e-8
-0.439, 4.009e-10, -3.499e-8, -3.539e-8, -3.336e-7, -3.639e-7, -3.028e-8
-0.440, 2.854e-10, -3.482e-8, -3.511e-8, -3.330e-7, -3.639e-7, -3.090e-8
-0.441, 3.221e-10, -3.478e-8, -3.510e-8, -3.325e-7, -3.640e-7, -3.150e-8
-0.442, 2.679e-10, -3.466e-8, -3.492e-8, -3.320e-7, -3.639e-7, -3.184e-8
-0.443, 2.175e-10, -3.471e-8, -3.493e-8, -3.315e-7, -3.639e-7, -3.235e-8
-0.444, 2.754e-11, -3.475e-8, -3.478e-8, -3.309e-7, -3.639e-7, -3.297e-8
-0.445, 1.205e-10, -3.459e-8, -3.471e-8, -3.303e-7, -3.639e-7, -3.363e-8
-0.446, -9.235e-11, -3.464e-8, -3.454e-8, -3.299e-7, -3.640e-7, -3.412e-8
-0.447, 1.851e-11, -3.456e-8, -3.458e-8, -3.293e-7, -3.640e-7, -3.461e-8
-0.448, 2.258e-10, -3.440e-8, -3.462e-8, -3.289e-7, -3.640e-7, -3.505e-8
-0.449, 1.932e-10, -3.430e-8, -3.449e-8, -3.285e-7, -3.639e-7, -3.544e-8
-0.450, 5.253e-11, -3.432e-8, -3.437e-8, -3.281e-7, -3.639e-7, -3.584e-8
-0.451, 3.514e-11, -3.422e-8, -3.426e-8, -3.274e-7, -3.638e-7, -3.644e-8
-0.452, -2.224e-11, -3.427e-8, -3.425e-8, -3.268e-7, -3.638e-7, -3.702e-8
-0.453, -1.169e-10, -3.433e-8, -3.422e-8, -3.264e-7, -3.637e-7, -3.726e-8
-0.454, 1.225e-10, -3.420e-8, -3.432e-8, -3.261e-7, -3.638e-7, -3.768e-8
-0.455, 2.629e-10, -3.419e-8, -3.445e-8, -3.256e-7, -3.636e-7, -3.794e-8
-0.456, 5.065e-10, -3.418e-8, -3.468e-8, -3.253e-7, -3.634e-7, -3.813e-8
-0.457, 5.538e-10, -3.413e-8, -3.468e-8, -3.249e-7, -3.633e-7, -3.843e-8
-0.458, 5.694e-10, -3.414e-8, -3.471e-8, -3.243e-7, -3.631e-7, -3.878e-8
-0.459, 8.595e-10, -3.399e-8, -3.485e-8, -3.240e-7, -3.632e-7, -3.922e-8
-0.460, 9.272e-10, -3.392e-8, -3.484e-8, -3.235e-7, -3.632e-7, -3.971e-8
-0.461, 8.547e-10, -3.391e-8, -3.476e-8, -3.228e-7, -3.632e-7, -4.033e-8
-0.462, 9.185e-10, -3.378e-8, -3.470e-8, -3.225e-7, -3.632e-7, -4.069e-8
-0.463, 1.219e-9, -3.361e-8, -3.483e-8, -3.218e-7, -3.630e-7, -4.112e-8
-0.464, 1.009e-9, -3.374e-8, -3.475e-8, -3.216e-7, -3.631e-7, -4.151e-8
-0.465, 9.839e-10, -3.380e-8, -3.479e-8, -3.210e-7, -3.631e-7, -4.210e-8
-0.466, 9.971e-10, -3.391e-8, -3.491e-8, -3.207e-7, -3.631e-7, -4.245e-8
-0.467, 1.040e-9, -3.403e-8, -3.507e-8, -3.204e-7, -3.632e-7, -4.287e-8
-0.468, 1.078e-9, -3.396e-8, -3.504e-8, -3.195e-7, -3.631e-7, -4.361e-8
-0.469, 1.074e-9, -3.395e-8, -3.503e-8, -3.194e-7, -3.631e-7, -4.369e-8
-0.470, 9.311e-10, -3.401e-8, -3.494e-8, -3.188e-7, -3.630e-7, -4.414e-8
-0.471, 6.065e-10, -3.427e-8, -3.487e-8, -3.180e-7, -3.629e-7, -4.484e-8
-0.472, 6.923e-10, -3.430e-8, -3.500e-8, -3.175e-7, -3.630e-7, -4.546e-8
-0.473, 6.380e-10, -3.432e-8, -3.495e-8, -3.170e-7, -3.631e-7, -4.606e-8
-0.474, 3.724e-10, -3.455e-8, -3.493e-8, -3.166e-7, -3.631e-7, -4.651e-8
-0.475, 1.423e-10, -3.471e-8, -3.485e-8, -3.159e-7, -3.630e-7, -4.708e-8
-0.476, 6.182e-11, -3.491e-8, -3.497e-8, -3.155e-7, -3.632e-7, -4.762e-8
-0.477, 1.196e-10, -3.492e-8, -3.504e-8, -3.151e-7, -3.632e-7, -4.815e-8
-0.478, 2.101e-10, -3.496e-8, -3.517e-8, -3.146e-7, -3.633e-7, -4.869e-8
-0.479, -8.566e-11, -3.514e-8, -3.506e-8, -3.142e-7, -3.633e-7, -4.908e-8
-0.480, -3.014e-10, -3.533e-8, -3.503e-8, -3.134e-7, -3.633e-7, -4.990e-8
-0.481, -5.384e-10, -3.555e-8, -3.501e-8, -3.132e-7, -3.635e-7, -5.033e-8
-0.482, -5.402e-10, -3.565e-8, -3.511e-8, -3.127e-7, -3.634e-7, -5.074e-8
-0.483, -5.732e-10, -3.573e-8, -3.516e-8, -3.120e-7, -3.634e-7, -5.135e-8
-0.484, -6.317e-10, -3.574e-8, -3.511e-8, -3.116e-7, -3.635e-7, -5.197e-8
-0.485, -6.417e-10, -3.571e-8, -3.507e-8, -3.111e-7, -3.635e-7, -5.239e-8
-0.486, -7.058e-10, -3.574e-8, -3.504e-8, -3.110e-7, -3.639e-7, -5.285e-8
-0.487, -6.866e-10, -3.573e-8, -3.504e-8, -3.109e-7, -3.643e-7, -5.335e-8
-0.488, -5.166e-10, -3.555e-8, -3.504e-8, -3.107e-7, -3.646e-7, -5.381e-8
-0.489, -4.507e-10, -3.553e-8, -3.508e-8, -3.104e-7, -3.648e-7, -5.436e-8
-0.490, -3.993e-10, -3.542e-8, -3.502e-8, -3.103e-7, -3.650e-7, -5.466e-8
-0.491, -3.116e-10, -3.532e-8, -3.500e-8, -3.099e-7, -3.650e-7, -5.515e-8
-0.492, -2.580e-10, -3.518e-8, -3.492e-8, -3.094e-7, -3.653e-7, -5.585e-8
-0.493, -2.072e-10, -3.517e-8, -3.496e-8, -3.093e-7, -3.656e-7, -5.634e-8
-0.494, -4.047e-10, -3.520e-8, -3.479e-8, -3.092e-7, -3.659e-7, -5.669e-8
-0.495, -3.629e-10, -3.509e-8, -3.472e-8, -3.090e-7, -3.661e-7, -5.711e-8
-0.496, -4.636e-10, -3.511e-8, -3.465e-8, -3.089e-7, -3.662e-7, -5.735e-8
-0.497, -5.058e-10, -3.514e-8, -3.463e-8, -3.085e-7, -3.661e-7, -5.764e-8
-0.498, -3.817e-10, -3.522e-8, -3.484e-8, -3.080e-7, -3.662e-7, -5.812e-8
-0.499, -1.451e-10, -3.513e-8, -3.499e-8, -3.077e-7, -3.662e-7, -5.850e-8
-0.500, -9.030e-11, -3.518e-8, -3.509e-8, -3.077e-7, -3.664e-7, -5.875e-8
-0.501, 1.943e-10, -3.513e-8, -3.532e-8, -3.075e-7, -3.665e-7, -5.900e-8
-0.502, 4.505e-10, -3.502e-8, -3.547e-8, -3.072e-7, -3.667e-7, -5.948e-8
-0.503, 5.870e-10, -3.497e-8, -3.555e-8, -3.069e-7, -3.668e-7, -5.991e-8
-0.504, 8.752e-10, -3.475e-8, -3.563e-8, -3.063e-7, -3.665e-7, -6.021e-8
-0.505, 8.408e-10, -3.472e-8, -3.556e-8, -3.061e-7, -3.667e-7, -6.063e-8
-0.506, 1.009e-9, -3.455e-8, -3.556e-8, -3.056e-7, -3.668e-7, -6.116e-8
-0.507, 1.122e-9, -3.444e-8, -3.556e-8, -3.054e-7, -3.670e-7, -6.155e-8
-0.508, 8.247e-10, -3.469e-8, -3.551e-8, -3.052e-7, -3.672e-7, -6.196e-8
-0.509, 8.308e-10, -3.456e-8, -3.540e-8, -3.051e-7, -3.673e-7, -6.229e-8
-0.510, 5.935e-10, -3.474e-8, -3.533e-8, -3.048e-7, -3.674e-7, -6.259e-8
-0.511, 6.353e-10, -3.476e-8, -3.539e-8, -3.042e-7, -3.669e-7, -6.271e-8
-0.512, 5.243e-10, -3.480e-8, -3.533e-8, -3.037e-7, -3.669e-7, -6.314e-8
-0.513, 6.938e-10, -3.473e-8, -3.542e-8, -3.037e-7, -3.671e-7, -6.337e-8
-0.514, 6.349e-10, -3.483e-8, -3.547e-8, -3.033e-7, -3.670e-7, -6.376e-8
-0.515, 5.119e-10, -3.490e-8, -3.541e-8, -3.029e-7, -3.672e-7, -6.429e-8
-0.516, 4.952e-10, -3.489e-8, -3.539e-8, -3.028e-7, -3.675e-7, -6.475e-8
-0.517, 6.460e-10, -3.485e-8, -3.549e-8, -3.028e-7, -3.679e-7, -6.508e-8
-0.518, 5.436e-10, -3.489e-8, -3.543e-8, -3.022e-7, -3.680e-7, -6.580e-8
-0.519, 6.216e-10, -3.487e-8, -3.549e-8, -3.020e-7, -3.684e-7, -6.636e-8
-0.520, 6.145e-10, -3.499e-8, -3.560e-8, -3.021e-7, -3.687e-7, -6.654e-8
-0.521, 5.962e-10, -3.504e-8, -3.564e-8, -3.020e-7, -3.687e-7, -6.679e-8
-0.522, 4.798e-10, -3.510e-8, -3.558e-8, -3.013e-7, -3.686e-7, -6.738e-8
-0.523, 4.705e-10, -3.509e-8, -3.556e-8, -3.008e-7, -3.689e-7, -6.812e-8
-0.524, 4.505e-10, -3.505e-8, -3.550e-8, -3.003e-7, -3.689e-7, -6.863e-8
-0.525, 2.758e-10, -3.516e-8, -3.544e-8, -2.997e-7, -3.691e-7, -6.934e-8
-0.526, 1.075e-10, -3.519e-8, -3.529e-8, -2.988e-7, -3.689e-7, -7.013e-8
-0.527, -2.784e-10, -3.541e-8, -3.513e-8, -2.982e-7, -3.689e-7, -7.067e-8
-0.528, -2.914e-10, -3.555e-8, -3.526e-8, -2.977e-7, -3.689e-7, -7.128e-8
-0.529, -4.259e-10, -3.557e-8, -3.515e-8, -2.971e-7, -3.691e-7, -7.194e-8
-0.530, -5.498e-10, -3.547e-8, -3.492e-8, -2.965e-7, -3.692e-7, -7.271e-8
-0.531, -6.141e-10, -3.544e-8, -3.482e-8, -2.962e-7, -3.694e-7, -7.312e-8
-0.532, -5.283e-10, -3.546e-8, -3.493e-8, -2.961e-7, -3.696e-7, -7.354e-8
-0.533, -4.379e-10, -3.545e-8, -3.501e-8, -2.957e-7, -3.699e-7, -7.423e-8
-0.534, -6.306e-10, -3.552e-8, -3.489e-8, -2.955e-7, -3.703e-7, -7.483e-8
-0.535, -6.461e-10, -3.539e-8, -3.474e-8, -2.948e-7, -3.700e-7, -7.522e-8
-0.536, -7.980e-10, -3.539e-8, -3.459e-8, -2.940e-7, -3.699e-7, -7.596e-8
-0.537, -9.831e-10, -3.541e-8, -3.442e-8, -2.932e-7, -3.699e-7, -7.667e-8
-0.538, -1.043e-9, -3.539e-8, -3.435e-8, -2.928e-7, -3.700e-7, -7.720e-8
-0.539, -1.077e-9, -3.542e-8, -3.435e-8, -2.924e-7, -3.702e-7, -7.772e-8
-0.540, -9.133e-10, -3.539e-8, -3.448e-8, -2.920e-7, -3.703e-7, -7.830e-8
-0.541, -8.925e-10, -3.544e-8, -3.455e-8, -2.918e-7, -3.704e-7, -7.860e-8
-0.542, -9.884e-10, -3.549e-8, -3.450e-8, -2.911e-7, -3.702e-7, -7.910e-8
-0.543, -1.075e-9, -3.558e-8, -3.451e-8, -2.903e-7, -3.702e-7, -7.981e-8
-0.544, -8.748e-10, -3.557e-8, -3.470e-8, -2.898e-7, -3.702e-7, -8.040e-8
-0.545, -8.189e-10, -3.561e-8, -3.479e-8, -2.892e-7, -3.702e-7, -8.104e-8
-0.546, -6.723e-10, -3.553e-8, -3.486e-8, -2.886e-7, -3.704e-7, -8.183e-8
-0.547, -5.793e-10, -3.539e-8, -3.481e-8, -2.883e-7, -3.706e-7, -8.237e-8
-0.548, -6.724e-10, -3.547e-8, -3.480e-8, -2.880e-7, -3.708e-7, -8.279e-8
-0.549, -2.635e-10, -3.515e-8, -3.489e-8, -2.873e-7, -3.707e-7, -8.335e-8
-0.550, -3.731e-10, -3.511e-8, -3.473e-8, -2.868e-7, -3.706e-7, -8.381e-8
-0.551, -4.066e-10, -3.500e-8, -3.460e-8, -2.865e-7, -3.705e-7, -8.405e-8
-0.552, -3.798e-10, -3.497e-8, -3.459e-8, -2.862e-7, -3.704e-7, -8.416e-8
-0.553, -3.584e-10, -3.494e-8, -3.458e-8, -2.860e-7, -3.706e-7, -8.466e-8
-0.554, -4.205e-10, -3.490e-8, -3.448e-8, -2.853e-7, -3.705e-7, -8.520e-8
-0.555, -6.063e-10, -3.494e-8, -3.434e-8, -2.853e-7, -3.706e-7, -8.534e-8
-0.556, -4.478e-10, -3.484e-8, -3.439e-8, -2.849e-7, -3.705e-7, -8.567e-8
-0.557, -2.276e-10, -3.462e-8, -3.439e-8, -2.841e-7, -3.702e-7, -8.607e-8
-0.558, -2.906e-10, -3.471e-8, -3.442e-8, -2.832e-7, -3.698e-7, -8.656e-8
-0.559, 2.981e-11, -3.458e-8, -3.461e-8, -2.828e-7, -3.696e-7, -8.683e-8
-0.560, 1.416e-10, -3.458e-8, -3.472e-8, -2.826e-7, -3.700e-7, -8.735e-8
-0.561, 1.607e-10, -3.456e-8, -3.472e-8, -2.825e-7, -3.701e-7, -8.758e-8
-0.562, 1.641e-10, -3.462e-8, -3.479e-8, -2.818e-7, -3.699e-7, -8.811e-8
-0.563, 4.361e-10, -3.445e-8, -3.488e-8, -2.817e-7, -3.702e-7, -8.846e-8
-0.564, 4.788e-10, -3.432e-8, -3.480e-8, -2.814e-7, -3.702e-7, -8.886e-8
-0.565, 6.047e-10, -3.432e-8, -3.492e-8, -2.810e-7, -3.702e-7, -8.916e-8
-0.566, 5.297e-10, -3.441e-8, -3.494e-8, -2.805e-7, -3.701e-7, -8.954e-8
-0.567, 6.392e-10, -3.441e-8, -3.505e-8, -2.800e-7, -3.700e-7, -8.994e-8
-0.568, 5.761e-10, -3.456e-8, -3.514e-8, -2.795e-7, -3.697e-7, -9.019e-8
-0.569, 6.935e-10, -3.438e-8, -3.507e-8, -2.790e-7, -3.696e-7, -9.054e-8
-0.570, 5.687e-10, -3.439e-8, -3.496e-8, -2.783e-7, -3.694e-7, -9.108e-8
-0.571, 5.067e-10, -3.449e-8, -3.500e-8, -2.779e-7, -3.693e-7, -9.144e-8
-0.572, 5.753e-10, -3.438e-8, -3.496e-8, -2.774e-7, -3.691e-7, -9.177e-8
-0.573, 4.438e-10, -3.446e-8, -3.490e-8, -2.769e-7, -3.691e-7, -9.223e-8
-0.574, 6.155e-10, -3.438e-8, -3.499e-8, -2.760e-7, -3.687e-7, -9.265e-8
-0.575, 6.822e-10, -3.442e-8, -3.511e-8, -2.756e-7, -3.687e-7, -9.310e-8
-0.576, 9.729e-10, -3.431e-8, -3.529e-8, -2.753e-7, -3.688e-7, -9.346e-8
-0.577, 1.056e-9, -3.413e-8, -3.519e-8, -2.751e-7, -3.689e-7, -9.379e-8
-0.578, 1.248e-9, -3.409e-8, -3.534e-8, -2.752e-7, -3.688e-7, -9.358e-8
-0.579, 1.424e-9, -3.406e-8, -3.548e-8, -2.751e-7, -3.688e-7, -9.370e-8
-0.580, 1.418e-9, -3.410e-8, -3.551e-8, -2.746e-7, -3.685e-7, -9.395e-8
-0.581, 1.268e-9, -3.413e-8, -3.539e-8, -2.734e-7, -3.681e-7, -9.467e-8
-0.582, 1.085e-9, -3.421e-8, -3.530e-8, -2.731e-7, -3.684e-7, -9.529e-8
-0.583, 1.144e-9, -3.417e-8, -3.532e-8, -2.728e-7, -3.687e-7, -9.596e-8
-0.584, 1.019e-9, -3.434e-8, -3.536e-8, -2.725e-7, -3.694e-7, -9.691e-8
-0.585, 1.079e-9, -3.446e-8, -3.554e-8, -2.727e-7, -3.701e-7, -9.747e-8
-0.586, 1.154e-9, -3.454e-8, -3.569e-8, -2.727e-7, -3.709e-7, -9.814e-8
-0.587, 1.208e-9, -3.458e-8, -3.579e-8, -2.729e-7, -3.716e-7, -9.868e-8
-0.588, 1.280e-9, -3.463e-8, -3.591e-8, -2.724e-7, -3.719e-7, -9.957e-8
-0.589, 1.128e-9, -3.471e-8, -3.584e-8, -2.723e-7, -3.725e-7, -1.002e-7
-0.590, 8.455e-10, -3.479e-8, -3.563e-8, -2.719e-7, -3.729e-7, -1.010e-7
-0.591, 1.048e-9, -3.465e-8, -3.570e-8, -2.721e-7, -3.737e-7, -1.016e-7
-0.592, 1.096e-9, -3.467e-8, -3.577e-8, -2.722e-7, -3.743e-7, -1.021e-7
-0.593, 9.483e-10, -3.482e-8, -3.577e-8, -2.722e-7, -3.747e-7, -1.025e-7
-0.594, 8.773e-10, -3.481e-8, -3.568e-8, -2.723e-7, -3.753e-7, -1.030e-7
-0.595, 8.994e-10, -3.481e-8, -3.571e-8, -2.724e-7, -3.759e-7, -1.035e-7
-0.596, 8.962e-10, -3.482e-8, -3.572e-8, -2.726e-7, -3.763e-7, -1.037e-7
-0.597, 1.094e-9, -3.458e-8, -3.568e-8, -2.726e-7, -3.767e-7, -1.041e-7
-0.598, 6.099e-10, -3.485e-8, -3.546e-8, -2.723e-7, -3.769e-7, -1.045e-7
-0.599, 5.476e-10, -3.475e-8, -3.530e-8, -2.723e-7, -3.773e-7, -1.050e-7
-0.600, 4.533e-10, -3.486e-8, -3.532e-8, -2.720e-7, -3.776e-7, -1.056e-7
-0.601, 5.252e-10, -3.480e-8, -3.533e-8, -2.717e-7, -3.779e-7, -1.062e-7
-0.602, 4.416e-10, -3.472e-8, -3.516e-8, -2.714e-7, -3.780e-7, -1.067e-7
-0.603, 3.405e-10, -3.469e-8, -3.503e-8, -2.712e-7, -3.782e-7, -1.070e-7
-0.604, 4.198e-10, -3.472e-8, -3.514e-8, -2.705e-7, -3.781e-7, -1.076e-7
-0.605, 2.312e-10, -3.483e-8, -3.506e-8, -2.699e-7, -3.780e-7, -1.082e-7
-0.606, -1.320e-10, -3.510e-8, -3.497e-8, -2.696e-7, -3.782e-7, -1.086e-7
-0.607, -1.081e-11, -3.518e-8, -3.517e-8, -2.694e-7, -3.783e-7, -1.089e-7
-0.608, -1.160e-10, -3.526e-8, -3.515e-8, -2.692e-7, -3.784e-7, -1.093e-7
-0.609, -2.948e-10, -3.530e-8, -3.500e-8, -2.690e-7, -3.784e-7, -1.094e-7
-0.610, -4.009e-10, -3.544e-8, -3.504e-8, -2.688e-7, -3.786e-7, -1.098e-7
-0.611, -5.583e-10, -3.560e-8, -3.504e-8, -2.683e-7, -3.785e-7, -1.101e-7
-0.612, -5.354e-10, -3.557e-8, -3.504e-8, -2.678e-7, -3.784e-7, -1.106e-7
-0.613, -4.164e-10, -3.552e-8, -3.510e-8, -2.676e-7, -3.784e-7, -1.107e-7
-0.614, -7.044e-10, -3.559e-8, -3.488e-8, -2.672e-7, -3.783e-7, -1.111e-7
-0.615, -9.535e-10, -3.567e-8, -3.472e-8, -2.670e-7, -3.782e-7, -1.112e-7
-0.616, -1.063e-9, -3.572e-8, -3.466e-8, -2.668e-7, -3.783e-7, -1.114e-7
-0.617, -1.016e-9, -3.558e-8, -3.456e-8, -2.664e-7, -3.782e-7, -1.118e-7
-0.618, -9.135e-10, -3.556e-8, -3.465e-8, -2.659e-7, -3.779e-7, -1.120e-7
-0.619, -8.545e-10, -3.551e-8, -3.466e-8, -2.660e-7, -3.780e-7, -1.120e-7
-0.620, -6.644e-10, -3.517e-8, -3.451e-8, -2.657e-7, -3.779e-7, -1.123e-7
-0.621, -4.992e-10, -3.500e-8, -3.451e-8, -2.654e-7, -3.780e-7, -1.126e-7
-0.622, -2.414e-10, -3.487e-8, -3.462e-8, -2.651e-7, -3.781e-7, -1.130e-7
-0.623, -2.616e-10, -3.486e-8, -3.460e-8, -2.650e-7, -3.785e-7, -1.135e-7
-0.624, -1.886e-10, -3.472e-8, -3.453e-8, -2.651e-7, -3.789e-7, -1.137e-7
-0.625, -4.340e-10, -3.482e-8, -3.439e-8, -2.649e-7, -3.791e-7, -1.141e-7
-0.626, -5.642e-10, -3.490e-8, -3.433e-8, -2.649e-7, -3.794e-7, -1.146e-7
-0.627, -5.877e-10, -3.482e-8, -3.424e-8, -2.643e-7, -3.800e-7, -1.157e-7
-0.628, -7.404e-10, -3.493e-8, -3.419e-8, -2.639e-7, -3.803e-7, -1.164e-7
-0.629, -8.260e-10, -3.499e-8, -3.417e-8, -2.633e-7, -3.808e-7, -1.175e-7
-0.630, -9.476e-10, -3.516e-8, -3.421e-8, -2.639e-7, -3.821e-7, -1.182e-7
-0.631, -1.151e-9, -3.531e-8, -3.416e-8, -2.639e-7, -3.826e-7, -1.186e-7
-0.632, -1.181e-9, -3.526e-8, -3.407e-8, -2.637e-7, -3.829e-7, -1.192e-7
-0.633, -1.240e-9, -3.538e-8, -3.414e-8, -2.636e-7, -3.834e-7, -1.198e-7
-0.634, -1.367e-9, -3.531e-8, -3.394e-8, -2.635e-7, -3.839e-7, -1.204e-7
-0.635, -1.290e-9, -3.529e-8, -3.400e-8, -2.638e-7, -3.844e-7, -1.206e-7
-0.636, -1.094e-9, -3.521e-8, -3.412e-8, -2.636e-7, -3.849e-7, -1.213e-7
-0.637, -1.030e-9, -3.508e-8, -3.405e-8, -2.637e-7, -3.853e-7, -1.215e-7
-0.638, -9.552e-10, -3.499e-8, -3.404e-8, -2.636e-7, -3.856e-7, -1.220e-7
-0.639, -7.687e-10, -3.495e-8, -3.419e-8, -2.638e-7, -3.862e-7, -1.225e-7
-0.640, -8.728e-10, -3.503e-8, -3.416e-8, -2.637e-7, -3.866e-7, -1.229e-7
-0.641, -7.443e-10, -3.496e-8, -3.422e-8, -2.636e-7, -3.871e-7, -1.235e-7
-0.642, -6.393e-10, -3.483e-8, -3.420e-8, -2.634e-7, -3.876e-7, -1.242e-7
-0.643, -5.078e-10, -3.469e-8, -3.418e-8, -2.631e-7, -3.881e-7, -1.249e-7
-0.644, -4.294e-10, -3.456e-8, -3.413e-8, -2.630e-7, -3.885e-7, -1.255e-7
-0.645, -3.026e-10, -3.453e-8, -3.423e-8, -2.631e-7, -3.892e-7, -1.260e-7
-0.646, -3.897e-10, -3.467e-8, -3.428e-8, -2.627e-7, -3.894e-7, -1.267e-7
-0.647, -3.936e-10, -3.476e-8, -3.437e-8, -2.627e-7, -3.899e-7, -1.272e-7
-0.648, -2.421e-10, -3.478e-8, -3.454e-8, -2.623e-7, -3.901e-7, -1.278e-7
-0.649, -9.535e-11, -3.468e-8, -3.458e-8, -2.622e-7, -3.906e-7, -1.284e-7
-0.650, -1.261e-10, -3.473e-8, -3.461e-8, -2.619e-7, -3.909e-7, -1.290e-7
-0.651, -7.148e-11, -3.482e-8, -3.475e-8, -2.617e-7, -3.913e-7, -1.296e-7
-0.652, 4.106e-11, -3.488e-8, -3.492e-8, -2.611e-7, -3.913e-7, -1.302e-7
-0.653, 1.632e-10, -3.488e-8, -3.505e-8, -2.609e-7, -3.916e-7, -1.307e-7
-0.654, 2.165e-10, -3.489e-8, -3.511e-8, -2.610e-7, -3.920e-7, -1.309e-7
-0.655, 5.455e-10, -3.468e-8, -3.523e-8, -2.607e-7, -3.923e-7, -1.316e-7
-0.656, 3.556e-10, -3.486e-8, -3.521e-8, -2.607e-7, -3.927e-7, -1.319e-7
-0.657, 1.630e-10, -3.502e-8, -3.518e-8, -2.602e-7, -3.928e-7, -1.326e-7
-0.658, 1.958e-10, -3.504e-8, -3.524e-8, -2.599e-7, -3.933e-7, -1.333e-7
-0.659, 2.659e-10, -3.502e-8, -3.528e-8, -2.596e-7, -3.935e-7, -1.339e-7
-0.660, 3.132e-10, -3.502e-8, -3.533e-8, -2.599e-7, -3.941e-7, -1.342e-7
-0.661, 9.742e-11, -3.507e-8, -3.517e-8, -2.601e-7, -3.946e-7, -1.346e-7
-0.662, 9.442e-11, -3.510e-8, -3.519e-8, -2.603e-7, -3.953e-7, -1.350e-7
-0.663, 1.442e-10, -3.504e-8, -3.519e-8, -2.604e-7, -3.959e-7, -1.355e-7
-0.664, 3.115e-10, -3.497e-8, -3.529e-8, -2.606e-7, -3.965e-7, -1.358e-7
-0.665, 2.550e-10, -3.496e-8, -3.521e-8, -2.607e-7, -3.969e-7, -1.362e-7
-0.666, 3.689e-10, -3.493e-8, -3.529e-8, -2.610e-7, -3.973e-7, -1.363e-7
-0.667, 4.213e-10, -3.480e-8, -3.522e-8, -2.613e-7, -3.979e-7, -1.367e-7
-0.668, 5.347e-10, -3.466e-8, -3.519e-8, -2.611e-7, -3.986e-7, -1.375e-7
-0.669, 4.156e-10, -3.484e-8, -3.525e-8, -2.613e-7, -3.994e-7, -1.381e-7
-0.670, 1.485e-10, -3.501e-8, -3.516e-8, -2.614e-7, -3.999e-7, -1.385e-7
-0.671, 5.426e-11, -3.513e-8, -3.518e-8, -2.616e-7, -4.006e-7, -1.390e-7
-0.672, -2.933e-11, -3.515e-8, -3.512e-8, -2.616e-7, -4.013e-7, -1.396e-7
-0.673, -2.241e-10, -3.518e-8, -3.496e-8, -2.614e-7, -4.017e-7, -1.404e-7
-0.674, -3.581e-10, -3.526e-8, -3.490e-8, -2.616e-7, -4.024e-7, -1.407e-7
-0.675, -4.834e-10, -3.522e-8, -3.474e-8, -2.617e-7, -4.030e-7, -1.413e-7
-0.676, -7.671e-10, -3.545e-8, -3.468e-8, -2.617e-7, -4.034e-7, -1.417e-7
-0.677, -8.026e-10, -3.547e-8, -3.467e-8, -2.617e-7, -4.040e-7, -1.422e-7
-0.678, -8.303e-10, -3.549e-8, -3.465e-8, -2.617e-7, -4.045e-7, -1.428e-7
-0.679, -8.503e-10, -3.549e-8, -3.464e-8, -2.617e-7, -4.051e-7, -1.434e-7
-0.680, -8.625e-10, -3.550e-8, -3.464e-8, -2.617e-7, -4.057e-7, -1.440e-7
-0.681, -8.671e-10, -3.550e-8, -3.463e-8, -2.617e-7, -4.062e-7, -1.446e-7
-0.682, -8.639e-10, -3.549e-8, -3.463e-8, -2.616e-7, -4.068e-7, -1.452e-7
-0.683, -8.530e-10, -3.548e-8, -3.463e-8, -2.616e-7, -4.074e-7, -1.458e-7
-0.684, -8.344e-10, -3.547e-8, -3.463e-8, -2.615e-7, -4.079e-7, -1.464e-7
-0.685, -8.080e-10, -3.544e-8, -3.464e-8, -2.615e-7, -4.085e-7, -1.470e-7
-0.686, -7.740e-10, -3.542e-8, -3.464e-8, -2.614e-7, -4.091e-7, -1.477e-7
-0.687, -7.322e-10, -3.539e-8, -3.466e-8, -2.614e-7, -4.097e-7, -1.483e-7
-0.688, -6.827e-10, -3.535e-8, -3.467e-8, -2.613e-7, -4.103e-7, -1.489e-7
-0.689, -6.254e-10, -3.531e-8, -3.468e-8, -2.613e-7, -4.109e-7, -1.496e-7
-0.690, -5.605e-10, -3.526e-8, -3.470e-8, -2.612e-7, -4.115e-7, -1.503e-7
-0.691, -4.878e-10, -3.521e-8, -3.472e-8, -2.611e-7, -4.121e-7, -1.509e-7
-0.692, -4.074e-10, -3.515e-8, -3.475e-8, -2.610e-7, -4.127e-7, -1.516e-7
-0.693, -3.193e-10, -3.509e-8, -3.477e-8, -2.609e-7, -4.133e-7, -1.523e-7
-0.694, -2.235e-10, -3.502e-8, -3.480e-8, -2.609e-7, -4.139e-7, -1.530e-7
-0.695, -1.199e-10, -3.495e-8, -3.483e-8, -2.608e-7, -4.145e-7, -1.537e-7
-0.696, -8.633e-12, -3.487e-8, -3.487e-8, -2.607e-7, -4.151e-7, -1.544e-7
-0.697, 1.104e-10, -3.479e-8, -3.490e-8, -2.606e-7, -4.157e-7, -1.552e-7
-0.698, 2.371e-10, -3.470e-8, -3.494e-8, -2.604e-7, -4.163e-7, -1.559e-7
-0.699, 3.715e-10, -3.461e-8, -3.498e-8, -2.603e-7, -4.170e-7, -1.566e-7
-0.700, 5.137e-10, -3.451e-8, -3.503e-8, -2.602e-7, -4.176e-7, -1.574e-7
